Freq[Hz]     dBSPL  Phase[Deg]
5.00000     -5.572    34.354
5.07273     -4.881    40.417
5.14651     -4.193    46.556
5.22137     -3.506    52.772
5.29732     -2.822    59.065
5.37437     -2.140    65.437
5.45254     -1.459    71.890
5.53185     -0.781    78.423
5.61231     -0.105    85.039
5.69394      0.569    91.737
5.77676      1.242    98.520
5.86079      1.913   105.389
5.94604      2.581   112.344
6.03252      3.249   119.386
6.12027      3.914   126.518
6.20929      4.578   133.739
6.29961      5.241   141.051
6.39124      5.902   148.456
6.48420      6.561   155.954
6.57851      7.219   163.546
6.67420      7.876   171.235
6.77128      8.532   179.020
6.86977      9.187  -173.095
6.96969      9.841  -165.112
7.07107     10.493  -157.027
7.17392     11.145  -148.839
7.27827     11.797  -140.548
7.38413     12.447  -132.151
7.49154     13.098  -123.647
7.60050     13.747  -115.034
7.71105     14.397  -106.311
7.82321     15.046   -97.476
7.93701     15.696   -88.526
8.05245     16.346   -79.461
8.16958     16.995   -70.278
8.28841     17.646   -60.975
8.40896     18.297   -51.550
8.53128     18.948   -42.001
8.65537     19.601   -32.324
8.78126     20.254   -22.518
8.90899     20.909   -12.579
9.03857     21.565    -2.506
9.17004     22.222     7.705
9.30342     22.881    18.057
9.43874     23.541    28.552
9.57603     24.204    39.195
9.71532     24.868    49.989
9.85663     25.534    60.936
10.0000     26.202    72.041
10.1455     26.737   -89.487
10.2930     27.093   -93.449
10.4427     27.537   -40.114
10.5946     28.036   -25.712
10.7487     28.611     3.484
10.9051     29.257    17.065
11.0637     29.957    35.821
11.2246     30.694    48.311
11.3879     31.461    61.192
11.5535     32.253    72.686
11.7216     33.059    81.734
11.8921     33.873    92.309
12.0650     34.690    98.682
12.2405     35.506   108.476
12.4186     36.318   112.882
12.5992     37.124   122.020
12.7825     37.921   124.937
12.9684     38.713   133.541
13.1570     39.496   135.297
13.3484     40.271   143.186
13.5426     41.038   144.825
13.7395     41.790   151.170
13.9394     42.537   153.186
14.1421     43.278   158.250
14.3478     44.011   160.524
14.5565     44.737   164.511
14.7683     45.454   166.970
14.9831     46.164   170.058
15.2010     46.869   172.685
15.4221     47.569   175.020
15.6464     48.263   177.754
15.8740     48.950   179.413
16.1049     49.633  -177.768
16.3392     50.312  -176.679
16.5768     50.986  -173.783
16.8179     51.658  -173.193
17.0626     52.327  -170.282
17.3107     52.988  -170.170
17.5625     53.648  -167.286
17.8180     54.306  -167.254
18.0771     54.964  -164.901
18.3401     55.618  -164.707
18.6068     56.271  -162.879
18.8775     56.921  -162.540
19.1521     57.569  -161.202
19.4306     58.216  -160.726
19.7133     58.864  -159.826
20.0000     59.512  -159.283
20.2909     60.159  -158.822
20.5860     60.806  -158.198
20.8855     61.454  -158.137
21.1893     62.101  -157.492
21.4975     62.748  -157.843
21.8102     63.394  -157.187
22.1274     64.044  -157.888
22.4492     64.694  -157.273
22.7758     65.343  -158.379
23.1071     65.994  -157.869
23.4432     66.641  -159.217
23.7841     67.288  -159.089
24.1301     67.933  -160.487
24.4811     68.576  -160.850
24.8372     69.215  -162.310
25.1984     69.851  -163.172
25.5649     70.481  -164.773
25.9368     71.098  -166.144
26.3141     71.702  -167.854
26.6968     72.296  -169.724
27.0851     72.874  -171.710
27.4791     73.430  -174.071
27.8788     73.958  -176.052
28.2843     74.459  -178.736
28.6957     74.928   179.151
29.1131     75.371   176.027
29.5365     75.767   173.921
29.9661     76.139   170.845
30.4020     76.511   168.968
30.8442     76.847   165.965
31.2929     77.185   164.159
31.7480     77.506   161.157
32.2098     77.787   159.020
32.6783     78.076   156.212
33.1536     78.362   153.917
33.6359     78.614   151.218
34.1251     78.834   148.980
34.6215     79.046   146.640
35.1250     79.242   144.314
35.6359     79.404   142.075
36.1543     79.566   139.893
36.6802     79.734   138.069
37.2137     79.891   135.885
37.7550     80.042   134.330
38.3041     80.201   132.180
38.8613     80.356   130.601
39.4265     80.505   128.359
40.0000     80.658   127.183
40.5818     80.804   124.969
41.1721     80.947   123.750
41.7710     81.096   121.792
42.3785     81.236   120.533
42.9949     81.375   118.710
43.6203     81.518   117.367
44.2548     81.665   115.666
44.8985     81.810   114.243
45.5515     81.957   112.696
46.2141     82.106   111.235
46.8863     82.255   109.786
47.5683     82.403   108.225
48.2602     82.556   106.896
48.9621     82.713   105.280
49.6743     82.872   103.999
50.3968     83.035   102.221
51.1299     83.198   100.898
51.8736     83.344    98.937
52.6281     83.487    97.762
53.3936     83.641    95.890
54.1702     83.802    94.678
54.9581     83.963    92.779
55.7575     84.125    91.407
56.5685     84.288    89.513
57.3914     84.452    87.942
58.2261     84.610    86.021
59.0730     84.759    84.273
59.9323     84.900    82.366
60.8040     85.044    80.538
61.6884     85.188    78.659
62.5857     85.323    76.660
63.4960     85.450    74.772
64.4196     85.572    72.682
65.3566     85.691    70.843
66.3073     85.806    68.603
67.2717     85.910    66.739
68.2502     86.006    64.402
69.2429     86.093    62.572
70.2501     86.171    60.156
71.2719     86.241    58.304
72.3086     86.301    55.930
73.3603     86.353    54.032
74.4274     86.400    51.766
75.5099     86.440    49.845
76.6083     86.470    47.643
77.7226     86.475    45.628
78.8531     86.466    43.670
80.0000     86.482    41.962
81.1636     86.518    40.129
82.3442     86.546    38.148
83.5419     86.564    36.274
84.7570     86.572    34.294
85.9899     86.571    32.550
87.2406     86.566    30.633
88.5096     86.578    29.082
89.7970     86.601    27.067
91.1031     86.610    25.431
92.4282     86.611    23.398
93.7726     86.614    21.839
95.1366     86.617    19.848
96.5204     86.622    18.202
97.9243     86.622    16.182
99.3486     86.605    14.484
100.794     86.575    12.627
102.260     86.536    11.103
103.747     86.529     9.771
105.256     86.604     8.402
106.787     86.691     6.472
108.340     86.720     4.273
109.916     86.724     2.199
111.515     86.712    -0.002
113.137     86.679    -1.996
114.783     86.633    -4.055
116.452     86.589    -5.756
118.146     86.555    -7.698
119.865     86.526    -9.357
121.608     86.496   -11.372
123.377     86.465   -13.016
125.171     86.422   -15.024
126.992     86.369   -16.518
128.839     86.374   -18.131
130.713     86.418   -19.998
132.615     86.403   -22.386
134.543     86.341   -24.466
136.500     86.276   -26.478
138.486     86.209   -28.374
140.500     86.138   -30.245
142.544     86.069   -31.995
144.617     86.026   -33.637
146.721     85.999   -35.531
148.855     85.947   -37.462
151.020     85.869   -39.380
153.217     85.818   -40.920
155.445     85.802   -42.848
157.706     85.768   -44.773
160.000     85.704   -46.917
162.327     85.637   -48.675
164.688     85.574   -50.721
167.084     85.502   -52.546
169.514     85.420   -54.479
171.980     85.348   -56.146
174.481     85.288   -57.929
177.019     85.241   -59.591
179.594     85.203   -61.420
182.206     85.162   -63.249
184.856     85.122   -65.060
187.545     85.106   -66.904
190.273     85.088   -68.893
193.041     85.053   -70.924
195.849     85.044   -72.812
198.697     85.057   -74.990
201.587     85.067   -77.336
204.520     85.039   -80.076
207.494     84.969   -82.601
210.512     84.885   -85.224
213.574     84.782   -87.595
216.681     84.670   -89.997
219.833     84.569   -92.172
223.030     84.458   -94.466
226.274     84.362   -96.450
229.565     84.291   -98.653
232.905     84.212  -100.813
236.292     84.137  -102.988
239.729     84.083  -105.138
243.216     84.043  -107.482
246.754     83.986  -109.982
250.343     83.914  -112.413
253.984     83.850  -114.945
257.678     83.763  -117.482
261.426     83.674  -119.902
265.229     83.613  -122.310
269.087     83.539  -124.964
273.001     83.450  -127.421
276.972     83.375  -129.947
281.000     83.314  -132.370
285.088     83.261  -135.055
289.234     83.198  -137.706
293.441     83.130  -140.448
297.709     83.063  -143.116
302.040     83.000  -145.830
306.433     82.955  -148.556
310.890     82.902  -151.483
315.412     82.839  -154.363
320.000     82.782  -157.249
324.655     82.730  -160.190
329.377     82.680  -163.155
334.168     82.633  -166.226
339.028     82.585  -169.285
343.959     82.544  -172.442
348.962     82.503  -175.666
354.038     82.457  -179.004
359.188     82.405   177.654
364.412     82.342   174.131
369.713     82.258   170.779
375.090     82.185   167.405
380.546     82.114   164.066
386.081     82.040   160.658
391.697     81.970   157.295
397.394     81.903   153.875
403.175     81.834   150.463
409.039     81.761   147.018
414.989     81.698   143.635
421.025     81.633   140.198
427.149     81.570   136.760
433.362     81.508   133.301
439.665     81.443   129.862
446.060     81.384   126.440
452.548     81.334   123.062
459.131     81.284   119.605
465.809     81.240   116.202
472.584     81.206   112.743
479.458     81.163   109.240
486.432     81.132   105.832
493.507     81.110   102.291
500.686     81.092    98.735
507.968     81.067    94.776
515.357     80.962    90.976
522.853     80.862    87.537
530.458     80.772    84.171
538.174     80.692    80.929
546.002     80.623    77.737
553.943     80.562    74.577
562.001     80.507    71.511
570.175     80.459    68.481
578.469     80.431    65.594
586.883     80.438    62.648
595.419     80.471    59.589
604.080     80.507    56.277
612.866     80.531    52.881
621.780     80.555    49.409
630.824     80.581    45.852
640.000     80.616    42.056
649.309     80.641    37.572
658.753     80.462    32.857
668.335     80.205    29.122
678.056     79.957    25.818
687.919     79.712    22.941
697.925     79.490    20.380
708.077     79.269    18.032
718.376     79.048    16.298
728.825     78.945    14.972
739.426     78.932    13.402
750.181     78.942    11.488
761.093     78.956     9.451
772.163     78.974     7.304
783.394     78.988     5.144
794.789     79.023     2.993
806.349     79.085     0.854
818.078     79.164    -1.585
829.977     79.236    -4.027
842.050     79.317    -6.762
854.298     79.384    -9.462
866.724     79.457   -12.496
879.330     79.483   -15.557
892.120     79.506   -18.564
905.097     79.509   -21.590
918.262     79.510   -24.653
931.618     79.498   -27.646
945.169     79.481   -30.637
958.917     79.462   -33.591
972.864     79.430   -36.602
987.015     79.402   -39.565
1001.37     79.370   -42.597
1015.94     79.323   -45.700
1030.71     79.246   -48.767
1045.71     79.156   -51.639
1060.92     79.074   -54.407
1076.35     78.997   -57.208
1092.00     78.927   -59.811
1107.89     78.867   -62.471
1124.00     78.807   -65.129
1140.35     78.758   -67.923
1156.94     78.708   -70.540
1173.77     78.650   -73.388
1190.84     78.611   -76.112
1208.16     78.560   -79.010
1225.73     78.504   -81.902
1243.56     78.429   -84.801
1261.65     78.359   -87.617
1280.00     78.279   -90.425
1298.62     78.213   -93.240
1317.51     78.146   -96.043
1336.67     78.079   -98.927
1356.11     78.000  -101.731
1375.84     77.935  -104.548
1395.85     77.875  -107.252
1416.15     77.824  -110.192
1436.75     77.767  -113.051
1457.65     77.707  -116.017
1478.85     77.652  -118.851
1500.36     77.609  -121.919
1522.19     77.570  -124.790
1544.33     77.532  -128.049
1566.79     77.474  -131.127
1589.58     77.429  -134.309
1612.70     77.385  -137.468
1636.16     77.340  -140.796
1659.95     77.290  -144.067
1684.10     77.235  -147.439
1708.60     77.187  -150.767
1733.45     77.142  -154.157
1758.66     77.102  -157.685
1784.24     77.057  -161.278
1810.19     76.997  -165.004
1836.52     76.932  -168.645
1863.24     76.850  -172.508
1890.34     76.767  -176.078
1917.83     76.677  -179.933
1945.73     76.588   176.533
1974.03     76.494   172.621
2002.74     76.397   169.112
2031.87     76.295   165.242
2061.43     76.188   161.756
2091.41     76.082   158.084
2121.83     75.992   154.760
2152.69     75.924   151.206
2184.01     75.870   147.749
2215.77     75.818   144.111
2248.00     75.768   140.516
2280.70     75.720   136.884
2313.87     75.673   133.214
2347.53     75.628   129.680
2381.68     75.586   125.987
2416.32     75.544   122.645
2451.46     75.522   119.104
2487.12     75.531   116.104
2523.30     75.586   112.530
2560.00     75.674   109.523
2597.24     75.807   105.583
2635.01     75.970   102.187
2673.34     76.164    97.585
2712.23     76.342    93.136
2751.68     76.449    87.692
2791.70     76.500    82.911
2832.31     76.539    77.735
2873.50     76.576    72.901
2915.30     76.609    67.659
2957.70     76.636    62.311
3000.72     76.609    56.426
3044.37     76.448    50.285
3088.65     76.160    44.851
3133.58     75.827    39.841
3179.16     75.491    35.804
3225.40     75.145    31.674
3272.31     74.811    28.851
3319.91     74.527    25.802
3368.20     74.354    23.951
3417.19     74.220    20.696
3466.89     74.093    18.644
3517.32     73.949    15.522
3568.48     73.810    13.936
3620.39     73.753    12.016
3673.05     73.864    10.886
3726.47     74.069     8.346
3780.67     74.298     5.678
3835.67     74.527     2.015
3891.46     74.728    -2.022
3948.06     74.846    -6.627
4005.49     74.875   -11.293
4063.75     74.869   -15.586
4122.86     74.858   -20.302
4182.82     74.821   -24.817
4243.66     74.675   -30.446
4305.39     74.365   -34.861
4368.01     73.965   -39.383
4431.55     73.565   -41.768
4496.01     73.188   -44.754
4561.40     72.931   -45.400
4627.75     72.799   -47.694
4695.06     72.701   -48.807
4763.35     72.612   -50.976
4832.64     72.634   -51.628
4902.93     72.819   -53.632
4974.24     73.088   -55.862
5046.60     73.367   -59.789
5120.00     73.567   -64.419
5194.47     73.614   -69.825
5270.03     73.538   -75.196
5346.68     73.408   -80.480
5424.45     73.140   -86.850
5503.35     72.560   -92.447
5583.40     71.731   -96.938
5664.61     70.915   -97.829
5747.01     70.298   -97.938
5830.60     70.086   -95.842
5915.41     70.083   -97.243
6001.45     70.066   -97.583
6088.74     70.016  -100.364
6177.30     69.936  -101.182
6267.15     69.840  -103.188
6358.31     69.877  -103.156
6450.80     70.113  -105.085
6544.62     70.417  -107.437
6639.82     70.640  -111.915
6736.40     70.714  -116.388
6834.38     70.683  -121.254
6933.79     70.583  -126.194
7034.64     70.402  -131.089
7136.96     70.133  -136.654
7240.77     69.721  -141.728
7346.09     69.072  -147.544
7452.94     68.240  -150.484
7561.35     67.388  -153.379
7671.33     66.572  -152.911
7782.91     65.832  -152.945
7896.12     65.441  -148.679
8010.97     65.468  -147.966
8127.49     65.629  -146.239
8245.71     65.823  -147.811
8365.65     66.047  -147.960
8487.33     66.358  -150.468
8610.78     66.777  -153.071
8736.03     67.085  -159.140
8863.09     67.063  -165.450
8992.01     66.775  -171.969
9122.80     66.311  -177.778
9255.50     65.702   177.335
9390.12     65.006   172.854
9526.70     64.271   170.268
9665.27     63.576   167.325
9805.86     62.993   166.509
9948.49     62.490   163.007
10093.2     61.946   161.397
10240.0     61.264   155.557
10388.9     60.128   152.978
10540.1     58.542   148.671
10693.4     56.443   152.115
10848.9     54.480   161.015
11006.7     53.709   177.985
11166.8     54.136  -168.246
11329.2     55.487  -156.346
11494.0     57.182  -152.179
11661.2     58.791  -151.179
11830.8     60.209  -154.120
12002.9     61.400  -159.101
12177.5     62.305  -165.985
12354.6     62.806  -175.136
12534.3     62.788   176.798
12716.6     62.334   168.486
12901.6     61.627   165.207
13089.2     60.884   161.823
13279.6     60.355   165.026
13472.8     60.243   165.326
13668.8     60.697   170.695
13867.6     61.524   166.579
14069.3     62.115   165.256
14273.9     62.406   158.276
14481.5     62.633   157.195
14692.2     63.036   151.858
14905.9     63.572   148.809
15122.7     64.046   140.309
15342.7     64.190   132.120
15565.8     63.615   121.330
15792.2     62.168   117.222
16021.9     61.331   123.245
16255.0     62.302   128.655
16491.4     63.949   126.583
16731.3     65.183   116.070
16974.7     65.986   104.986
17221.6     65.454    88.049
17472.1     64.686    86.491
17726.2     64.807    78.087
17984.0     65.389    76.634
18245.6     65.709    58.793
18511.0     65.664    53.972
18780.2     65.476    35.642
19053.4     65.182    30.205
19330.5     64.956    10.899
19611.7     64.519     0.655
19897.0     63.297   -28.088
20186.4     63.473   -31.882
20480.0     63.648   -35.694
20777.9     63.824   -39.525
21080.1     63.999   -43.375
21386.7     64.174   -47.246
21697.8     64.348   -51.137
22013.4     64.523   -55.049
