Freq[Hz]     dBSPL  Phase[Deg]
5.00000     -4.886    35.771
5.07273     -4.194    41.818
5.14651     -3.505    47.942
5.22137     -2.818    54.144
5.29732     -2.133    60.425
5.37437     -1.450    66.786
5.45254     -0.769    73.227
5.53185     -0.090    79.751
5.61231      0.588    86.358
5.69394      1.263    93.050
5.77676      1.937    99.827
5.86079      2.609   106.690
5.94604      3.280   113.641
6.03252      3.949   120.681
6.12027      4.616   127.811
6.20929      5.282   135.032
6.29961      5.947   142.346
6.39124      6.610   149.753
6.48420      7.272   157.254
6.57851      7.933   164.852
6.67420      8.592   172.547
6.77128      9.250  -179.659
6.86977      9.908  -171.766
6.96969     10.564  -163.771
7.07107     11.219  -155.674
7.17392     11.874  -147.473
7.27827     12.528  -139.166
7.38413     13.182  -130.752
7.49154     13.835  -122.229
7.60050     14.487  -113.596
7.71105     15.140  -104.851
7.82321     15.792   -95.993
7.93701     16.444   -87.018
8.05245     17.096   -77.927
8.16958     17.749   -68.715
8.28841     18.402   -59.382
8.40896     19.055   -49.925
8.53128     19.709   -40.343
8.65537     20.364   -30.631
8.78126     21.019   -20.789
8.90899     21.676   -10.813
9.03857     22.333    -0.701
9.17004     22.992     9.550
9.30342     23.652    19.942
9.43874     24.314    30.480
9.57603     24.977    41.166
9.71532     25.642    52.003
9.85663     26.309    62.995
10.0000     26.977    74.145
10.1455     27.504   -87.412
10.2930     27.864   -91.320
10.4427     28.306   -37.961
10.5946     28.805   -23.529
10.7487     29.379     5.697
10.9051     30.024    19.312
11.0637     30.723    38.103
11.2246     31.458    50.629
11.3879     32.225    63.549
11.5535     33.016    75.082
11.7216     33.822    84.170
11.8921     34.635    94.785
12.0650     35.451   101.200
12.2405     36.268   111.036
12.4186     37.079   115.484
12.5992     37.886   124.664
12.7825     38.683   127.624
12.9684     39.474   136.272
13.1570     40.257   138.071
13.3484     41.032   146.005
13.5426     41.799   147.689
13.7395     42.551   154.079
13.9394     43.298   156.141
14.1421     44.039   161.251
14.3478     44.771   163.572
14.5565     45.498   167.606
14.7683     46.215   170.113
14.9831     46.925   173.250
15.2010     47.630   175.926
15.4221     48.330   178.310
15.6464     49.024  -178.904
15.8740     49.711  -177.194
16.1049     50.394  -174.324
16.3392     51.073  -173.182
16.5768     51.748  -170.234
16.8179     52.419  -169.590
17.0626     53.088  -166.625
17.3107     53.749  -166.458
17.5625     54.409  -163.518
17.8180     55.067  -163.429
18.0771     55.725  -161.019
18.3401     56.379  -160.766
18.6068     57.032  -158.880
18.8775     57.682  -158.481
19.1521     58.330  -157.082
19.4306     58.976  -156.544
19.7133     59.625  -155.583
20.0000     60.272  -154.977
20.2909     60.919  -154.452
20.5860     61.566  -153.763
20.8855     62.214  -153.636
21.1893     62.862  -152.925
21.4975     63.508  -153.208
21.8102     64.154  -152.484
22.1274     64.804  -153.116
22.4492     65.454  -152.431
22.7758     66.103  -153.465
23.1071     66.754  -152.884
23.4432     67.401  -154.158
23.7841     68.047  -153.956
24.1301     68.692  -155.279
24.4811     69.335  -155.566
24.8372     69.974  -156.949
25.1984     70.610  -157.732
25.5649     71.240  -159.253
25.9368     71.856  -160.544
26.3141     72.461  -162.172
26.6968     73.054  -163.959
27.0851     73.632  -165.861
27.4791     74.188  -168.137
27.8788     74.716  -170.032
28.2843     75.217  -172.629
28.6957     75.685  -174.652
29.1131     76.129  -177.686
29.5365     76.524  -179.700
29.9661     76.897   177.316
30.4020     77.268   175.533
30.8442     77.605   172.626
31.2929     77.942   170.916
31.7480     78.263   168.012
32.2098     78.544   165.975
32.6783     78.833   163.267
33.1536     79.119   161.075
33.6359     79.371   158.480
34.1251     79.591   156.347
34.6215     79.803   154.114
35.1250     79.998   151.896
35.6359     80.161   149.766
36.1543     80.322   147.696
36.6802     80.490   145.985
37.2137     80.647   143.916
37.7550     80.798   142.477
38.3041     80.957   140.446
38.8613     81.112   138.986
39.4265     81.261   136.865
40.0000     81.415   135.812
40.5818     81.561   133.724
41.1721     81.704   132.631
41.7710     81.852   130.802
42.3785     81.993   129.674
42.9949     82.132   127.983
43.6203     82.275   126.774
44.2548     82.422   125.209
44.8985     82.568   123.925
45.5515     82.715   122.518
46.2141     82.863   121.199
46.8863     83.012   119.894
47.5683     83.161   118.480
48.2602     83.313   117.299
48.9621     83.471   115.834
49.6743     83.630   114.706
50.3968     83.792   113.083
51.1299     83.956   111.916
51.8736     84.102   110.115
52.6281     84.245   109.104
53.3936     84.399   107.397
54.1702     84.560   106.353
54.9581     84.722   104.623
55.7575     84.884   103.424
56.5685     85.047   101.705
57.3914     85.210   100.312
58.2261     85.368    98.570
59.0730     85.518    97.006
59.9323     85.659    95.284
60.8040     85.802    93.645
61.6884     85.947    91.957
62.5857     86.082    90.151
63.4960     86.209    88.460
64.4196     86.331    86.570
65.3566     86.451    84.933
66.3073     86.565    82.899
67.2717     86.669    81.243
68.2502     86.766    79.118
69.2429     86.853    77.503
70.2501     86.930    75.304
71.2719     87.001    73.674
72.3086     87.060    71.523
73.3603     87.113    69.853
74.4274     87.160    67.817
75.5099     87.200    66.131
76.6083     87.229    64.166
77.7226     87.235    62.392
78.8531     87.226    60.679
80.0000     87.241    59.219
81.1636     87.278    57.637
82.3442     87.306    55.911
83.5419     87.324    54.296
84.7570     87.332    52.579
85.9899     87.331    51.102
87.2406     87.326    49.456
88.5096     87.338    48.179
89.7970     87.361    46.443
91.1031     87.370    45.089
92.4282     87.371    43.342
93.7726     87.374    42.074
95.1366     87.377    40.378
96.5204     87.382    39.030
97.9243     87.381    37.313
99.3486     87.364    35.923
100.794     87.334    34.378
102.260     87.295    33.170
103.747     87.288    32.160
105.256     87.363    31.116
106.787     87.450    29.516
108.340     87.479    27.651
109.916     87.482    25.917
111.515     87.469    24.060
113.137     87.436    22.415
114.783     87.390    20.710
116.452     87.345    19.368
118.146     87.310    17.790
119.865     87.281    16.499
121.608     87.250    14.858
123.377     87.219    13.593
125.171     87.175    11.969
126.992     87.121    10.864
128.839     87.126     9.645
130.713     87.168     8.177
132.615     87.153     6.193
134.543     87.090     4.522
136.500     87.023     2.924
138.486     86.955     1.448
140.500     86.882     0.002
142.544     86.813    -1.318
144.617     86.767    -2.524
146.721     86.739    -3.978
148.855     86.685    -5.464
151.020     86.604    -6.933
153.217     86.551    -8.016
155.445     86.533    -9.483
157.706     86.496   -10.943
160.000     86.428   -12.617
162.327     86.358   -13.901
164.688     86.292   -15.468
167.084     86.216   -16.809
169.514     86.130   -18.256
171.980     86.053   -19.433
174.481     85.987   -20.725
177.019     85.934   -21.891
179.594     85.889   -23.217
182.206     85.840   -24.539
184.856     85.792   -25.840
187.545     85.767   -27.165
190.273     85.739   -28.634
193.041     85.694   -30.140
195.849     85.673   -31.489
198.697     85.676   -33.119
201.587     85.677   -34.935
204.520     85.637   -37.147
207.494     85.557   -39.151
210.512     85.459   -41.259
213.574     85.340   -43.122
216.681     85.211   -45.020
219.833     85.090   -46.694
223.030     84.956   -48.494
226.274     84.834   -49.985
229.565     84.734   -51.687
232.905     84.624   -53.351
236.292     84.516   -55.029
239.729     84.429   -56.687
243.216     84.353   -58.561
246.754     84.253   -60.619
250.343     84.133   -62.605
253.984     84.015   -64.678
257.678     83.873   -66.755
261.426     83.728   -68.709
265.229     83.612   -70.690
269.087     83.476   -72.983
273.001     83.313   -75.107
276.972     83.154   -77.272
281.000     83.008   -79.334
285.088     82.864   -81.692
289.234     82.702   -84.025
293.441     82.530   -86.455
297.709     82.357   -88.827
302.040     82.184   -91.313
306.433     82.018   -93.853
310.890     81.838   -96.605
315.412     81.644   -99.359
320.000     81.452  -102.177
324.655     81.259  -105.139
329.377     81.060  -108.220
334.168     80.850  -111.489
339.028     80.631  -114.838
343.959     80.405  -118.403
348.962     80.163  -122.103
354.038     79.905  -126.014
359.188     79.627  -130.022
364.412     79.315  -134.234
369.713     78.996  -138.258
375.090     78.694  -142.508
380.546     78.389  -146.868
386.081     78.083  -151.407
391.697     77.789  -156.049
397.394     77.510  -160.940
403.175     77.239  -166.015
409.039     76.975  -171.287
414.989     76.746  -176.732
421.025     76.530   177.614
427.149     76.341   171.782
433.362     76.173   165.747
439.665     76.025   159.695
446.060     75.919   153.584
452.548     75.863   147.515
459.131     75.837   141.374
465.809     75.862   135.335
472.584     75.927   129.253
479.458     76.012   123.261
486.432     76.143   117.468
493.507     76.296   111.646
500.686     76.482   106.011
507.968     76.664    99.859
515.357     76.735    94.234
522.853     76.835    89.280
530.458     76.949    84.545
538.174     77.079    80.165
546.002     77.228    75.998
553.943     77.386    71.971
562.001     77.544    68.187
570.175     77.704    64.573
578.469     77.885    61.268
586.883     78.107    57.970
595.419     78.355    54.599
604.080     78.602    50.982
612.866     78.821    47.275
621.780     79.024    43.569
630.824     79.221    39.847
640.000     79.422    35.943
649.309     79.616    31.305
658.753     79.576    26.354
668.335     79.432    22.471
678.056     79.283    19.129
687.919     79.130    16.267
697.925     78.984    13.835
708.077     78.850    11.691
718.376     78.709    10.073
728.825     78.668     8.928
739.426     78.712     7.619
750.181     78.780     5.984
761.093     78.849     4.236
772.163     78.918     2.377
783.394     78.978     0.502
794.789     79.053    -1.350
806.349     79.150    -3.175
818.078     79.263    -5.295
829.977     79.366    -7.425
842.050     79.475    -9.850
854.298     79.565   -12.251
866.724     79.659   -14.983
879.330     79.704   -17.757
892.120     79.742   -20.485
905.097     79.759   -23.240
918.262     79.771   -26.056
931.618     79.765   -28.820
945.169     79.751   -31.592
958.917     79.731   -34.335
972.864     79.695   -37.143
987.015     79.661   -39.912
1001.37     79.619   -42.755
1015.94     79.561   -45.676
1030.71     79.473   -48.572
1045.71     79.368   -51.285
1060.92     79.271   -53.903
1076.35     79.176   -56.565
1092.00     79.086   -59.037
1107.89     79.005   -61.577
1124.00     78.921   -64.117
1140.35     78.848   -66.796
1156.94     78.771   -69.301
1173.77     78.688   -72.037
1190.84     78.620   -74.656
1208.16     78.541   -77.450
1225.73     78.453   -80.235
1243.56     78.346   -83.015
1261.65     78.244   -85.707
1280.00     78.130   -88.376
1298.62     78.030   -91.046
1317.51     77.928   -93.689
1336.67     77.826   -96.393
1356.11     77.710   -98.995
1375.84     77.609  -101.582
1395.85     77.514  -104.033
1416.15     77.428  -106.684
1436.75     77.334  -109.230
1457.65     77.245  -111.817
1478.85     77.158  -114.244
1500.36     77.099  -116.836
1522.19     77.054  -119.269
1544.33     77.017  -122.126
1566.79     76.955  -124.825
1589.58     76.912  -127.621
1612.70     76.867  -130.416
1636.16     76.826  -133.373
1659.95     76.780  -136.286
1684.10     76.733  -139.302
1708.60     76.697  -142.301
1733.45     76.668  -145.389
1758.66     76.647  -148.655
1784.24     76.622  -152.032
1810.19     76.593  -155.593
1836.52     76.556  -159.179
1863.24     76.506  -163.076
1890.34     76.444  -166.776
1917.83     76.383  -170.837
1945.73     76.311  -174.685
1974.03     76.243  -179.007
2002.74     76.157   176.953
2031.87     76.074   172.437
2061.43     75.976   168.165
2091.41     75.879   163.571
2121.83     75.792   159.178
2152.69     75.730   154.400
2184.01     75.678   149.515
2215.77     75.629   144.223
2248.00     75.576   138.722
2280.70     75.520   132.913
2313.87     75.455   126.775
2347.53     75.387   120.457
2381.68     75.310   113.635
2416.32     75.233   106.742
2451.46     75.152    99.149
2487.12     75.080    91.575
2523.30     75.003    82.955
2560.00     74.943    74.428
2597.24     74.872    64.497
2635.01     74.826    54.640
2673.34     74.757    43.052
2712.23     74.667    31.203
2751.68     74.477    17.997
2791.70     74.276     5.156
2832.31     74.091    -8.551
2873.50     73.966   -22.289
2915.30     73.890   -36.851
2957.70     73.877   -51.846
3000.72     73.854   -67.716
3044.37     73.714   -83.943
3088.65     73.460   -99.193
3133.58     73.200  -113.698
3179.16     72.971  -126.862
3225.40     72.757  -139.946
3272.31     72.544  -151.288
3319.91     72.398  -162.504
3368.20     72.384  -171.976
3417.19     72.472   177.066
3466.89     72.549   167.359
3517.32     72.618   156.452
3568.48     72.659   147.118
3620.39     72.780   137.347
3673.05     73.036   128.325
3726.47     73.373   117.802
3780.67     73.706   107.079
3835.67     74.024    95.256
3891.46     74.296    82.920
3948.06     74.467    69.834
4005.49     74.528    56.491
4063.75     74.531    43.335
4122.86     74.513    29.576
4182.82     74.453    15.821
4243.66     74.276     0.765
4305.39     73.928   -13.280
4368.01     73.492   -27.630
4431.55     73.056   -40.052
4496.01     72.649   -53.267
4561.40     72.375   -64.350
4627.75     72.233   -77.333
4695.06     72.130   -89.365
4763.35     72.037  -102.663
4832.64     72.058  -114.630
4902.93     72.243  -128.133
4974.24     72.516  -142.031
5046.60     72.802  -157.791
5120.00     73.011  -174.408
5194.47     73.068   168.050
5270.03     73.003   150.402
5346.68     72.885   132.700
5424.45     72.626   113.763
5503.35     72.051    95.443
5583.40     71.223    78.058
5664.61     70.403    64.086
5747.01     69.777    50.695
5830.60     69.556    39.290
5915.41     69.543    24.160
6001.45     69.518     9.866
6088.74     69.464    -7.100
6177.30     69.383   -22.318
6267.15     69.289   -38.936
6358.31     69.331   -53.716
6450.80     69.575   -70.666
6544.62     69.887   -88.248
6639.82     70.117  -108.162
6736.40     70.199  -128.274
6834.38     70.177  -148.985
6933.79     70.085  -169.989
7034.64     69.907   168.821
7136.96     69.634   146.728
7240.77     69.209   124.884
7346.09     68.542   102.034
7452.94     67.686    81.765
7561.35     66.808    61.210
7671.33     65.963    43.696
7782.91     65.192    25.365
7896.12     64.772    11.090
8010.97     64.782    -7.037
8127.49     64.931   -24.380
8245.71     65.125   -45.281
8365.65     65.355   -64.915
8487.33     65.692   -87.060
8610.78     66.158  -109.467
8736.03     66.521  -135.593
8863.09     66.547  -162.161
8992.01     66.296   170.876
9122.80     65.864   144.387
9255.50     65.278   118.516
9390.12     64.593    92.703
9526.70     63.867    68.362
9665.27     63.174    43.119
9805.86     62.587    19.316
9948.49     62.039    -7.771
10093.2     61.434   -33.454
10240.0     60.677   -63.676
10388.9     59.485   -90.939
10540.1     57.835  -120.188
10693.4     55.694  -141.592
10848.9     53.763  -157.650
11006.7     53.104  -166.087
11166.8     53.642  -178.478
11329.2     55.041   166.851
11494.0     56.741   144.287
11661.2     58.335   118.316
11830.8     59.734    88.080
12002.9     60.909    55.378
12177.5     61.799    20.294
12354.6     62.286   -17.540
12534.3     62.261   -54.768
12716.6     61.803   -92.692
12901.6     61.100  -125.994
13089.2     60.360  -159.806
13279.6     59.833   172.552
13472.8     59.722   141.557
13668.8     60.172   115.156
13867.6     60.990    78.745
14069.3     61.562    44.671
14273.9     61.845     4.454
14481.5     62.071   -30.299
14692.2     62.485   -69.769
14905.9     63.034  -107.412
15122.7     63.522  -151.001
15342.7     63.672   165.219
15565.8     63.094   118.308
15792.2     61.633    77.525
16021.9     60.783    46.361
16255.0     61.761    14.003
16491.4     63.417   -26.462
16731.3     64.659   -75.900
16974.7     65.469  -126.419
17221.6     64.937   176.666
17472.1     64.167   134.524
17726.2     64.285    84.894
17984.0     64.866    41.571
18245.6     65.191   -18.730
18511.0     65.152   -66.569
18780.2     64.975  -128.445
19053.4     64.679  -178.085
19330.5     64.439   117.754
19611.7     63.995    61.894
19897.0     62.774   -13.160
20186.4     62.954   -63.828
20480.0     63.128  -115.191
20777.9     63.296  -167.293
21080.1     63.465   139.830
21386.7     63.641    86.208
21697.8     63.821    31.874
22013.4     64.001   -23.180
