Freq[Hz]     dBSPL  Phase[Deg]
5.00000     -3.784  -140.311
5.07273     -3.088  -132.965
5.14651     -2.395  -125.526
5.22137     -1.704  -117.993
5.29732     -1.016  -110.365
5.37437     -0.330  -102.640
5.45254      0.353   -94.817
5.53185      1.035   -86.896
5.61231      1.713   -78.873
5.69394      2.390   -70.749
5.77676      3.064   -62.521
5.86079      3.736   -54.188
5.94604      4.407   -45.749
6.03252      5.075   -37.203
6.12027      5.741   -28.548
6.20929      6.405   -19.783
6.29961      7.067   -10.906
6.39124      7.728    -1.915
6.48420      8.386     7.190
6.57851      9.043    16.411
6.67420      9.699    25.749
6.77128     10.353    35.207
6.86977     11.006    44.785
6.96969     11.657    54.486
7.07107     12.307    64.311
7.17392     12.956    74.261
7.27827     13.604    84.338
7.38413     14.252    94.544
7.49154     14.898   104.882
7.60050     15.544   115.352
7.71105     16.189   125.956
7.82321     16.834   136.698
7.93701     17.479   147.578
8.05245     18.124   158.600
8.16958     18.769   169.765
8.28841     19.414  -178.924
8.40896     20.060  -167.465
8.53128     20.707  -155.854
8.65537     21.354  -144.090
8.78126     22.002  -132.169
8.90899     22.652  -120.087
9.03857     23.303  -107.843
9.17004     23.955   -95.432
9.30342     24.609   -82.851
9.43874     25.265   -70.096
9.57603     25.923   -57.163
9.71532     26.583   -44.049
9.85663     27.245   -30.749
10.0000     27.910   -17.259
10.1455     28.484  -159.015
10.2930     28.825  -161.549
10.4427     29.276  -101.623
10.5946     29.776   -85.758
10.7487     30.355   -52.785
10.9051     31.003   -37.700
11.0637     31.704   -16.455
11.2246     32.441    -2.431
11.3879     33.208    12.192
11.5535     34.000    25.243
11.7216     34.806    35.534
11.8921     35.620    47.677
12.0650     36.435    54.935
12.2405     37.251    66.309
12.4186     38.061    71.334
12.5992     38.868    82.057
12.7825     39.664    85.377
12.9684     40.455    95.571
13.1570     41.236    97.565
13.3484     42.012   106.991
13.5426     42.778   108.895
13.7395     43.530   116.536
13.9394     44.277   118.936
14.1421     45.017   125.072
14.3478     45.750   127.832
14.5565     46.476   132.711
14.7683     47.193   135.742
14.9831     47.902   139.562
15.2010     48.607   142.833
15.4221     49.307   145.764
15.6464     50.000   149.202
15.8740     50.687   151.340
16.1049     51.370   154.917
16.3392     52.049   156.378
16.5768     52.724   160.079
16.8179     53.395   160.945
17.0626     54.064   164.706
17.3107     54.726   165.016
17.5625     55.386   168.764
17.8180     56.045   168.987
18.0771     56.703   172.111
18.3401     57.357   172.568
18.6068     58.010   175.066
18.8775     58.661   175.732
19.1521     59.309   177.651
19.4306     59.956   178.510
19.7133     60.604   179.911
20.0000     61.252  -179.112
20.2909     61.900  -178.224
20.5860     62.548  -177.119
20.8855     63.197  -176.698
21.1893     63.845  -175.536
21.4975     64.492  -175.591
21.8102     65.139  -174.374
22.1274     65.790  -174.837
22.4492     66.440  -173.626
22.7758     67.090  -174.539
23.1071     67.742  -173.409
23.4432     68.389  -174.575
23.7841     69.038  -173.875
24.1301     69.683  -175.052
24.4811     70.327  -174.898
24.8372     70.967  -176.088
25.1984     71.604  -176.490
25.5649     72.235  -177.779
25.9368     72.853  -178.741
26.3141     73.459   179.899
26.6968     74.054   178.387
27.0851     74.633   176.787
27.4791     75.190   174.740
27.8788     75.719   173.183
28.2843     76.222   170.772
28.6957     76.692   169.110
29.1131     77.137   166.217
29.5365     77.534   164.593
29.9661     77.907   161.720
30.4020     78.282   160.354
30.8442     78.619   157.526
31.2929     78.958   156.208
31.7480     79.281   153.425
32.2098     79.563   151.734
32.6783     79.855   149.180
33.1536     80.142   147.289
33.6359     80.397   144.879
34.1251     80.619   143.010
34.6215     80.833   140.989
35.1250     81.030   138.998
35.6359     81.195   137.109
36.1543     81.359   135.231
36.6802     81.530   133.782
37.2137     81.689   131.872
37.7550     81.842   130.720
38.3041     82.004   128.813
38.8613     82.161   127.666
39.4265     82.313   125.642
40.0000     82.469   124.921
40.5818     82.618   122.916
41.1721     82.764   122.138
41.7710     82.915   120.414
42.3785     83.059   119.567
42.9949     83.201   118.005
43.6203     83.347   117.046
44.2548     83.497   115.635
44.8985     83.646   114.573
45.5515     83.797   113.342
46.2141     83.949   112.215
46.8863     84.101   111.106
47.5683     84.254   109.858
48.2602     84.410   108.896
48.9621     84.572   107.568
49.6743     84.735   106.672
50.3968     84.901   105.165
51.1299     85.069   104.255
51.8736     85.220   102.546
52.6281     85.368   101.797
53.3936     85.525   100.161
54.1702     85.691    99.389
54.9581     85.858    97.744
55.7575     86.024    96.778
56.5685     86.192    95.171
57.3914     86.361    93.988
58.2261     86.525    92.371
59.0730     86.679    90.994
59.9323     86.826    89.419
60.8040     86.976    87.942
61.6884     87.126    86.414
62.5857     87.267    84.749
63.4960     87.401    83.236
64.4196     87.529    81.464
65.3566     87.655    80.019
66.3073     87.776    78.084
67.2717     87.887    76.634
68.2502     87.990    74.586
69.2429     88.084    73.194
70.2501     88.169    71.057
71.2719     88.247    69.645
72.3086     88.315    67.571
73.3603     88.376    66.092
74.4274     88.431    64.146
75.5099     88.480    62.634
76.6083     88.518    60.771
77.7226     88.533    59.150
78.8531     88.532    57.552
80.0000     88.557    56.227
81.1636     88.604    54.774
82.3442     88.642    53.163
83.5419     88.670    51.688
84.7570     88.689    50.065
85.9899     88.698    48.736
87.2406     88.704    47.169
88.5096     88.727    46.053
89.7970     88.762    44.380
91.1031     88.783    43.193
92.4282     88.796    41.493
93.7726     88.812    40.392
95.1366     88.827    38.744
96.5204     88.845    37.548
97.9243     88.857    35.894
99.3486     88.854    34.634
100.794     88.838    33.157
102.260     88.813    32.065
103.747     88.822    31.133
105.256     88.912    30.184
106.787     89.014    28.670
108.340     89.059    26.881
109.916     89.078    25.238
111.515     89.082    23.440
113.137     89.066    21.896
114.783     89.037    20.233
116.452     89.010    18.997
118.146     88.994    17.438
119.865     88.983    16.261
121.608     88.972    14.630
123.377     88.959    13.471
125.171     88.935    11.861
126.992     88.902    10.845
128.839     88.928     9.640
130.713     88.992     8.240
132.615     88.999     6.271
134.543     88.958     4.653
136.500     88.914     3.078
138.486     88.870     1.635
140.500     88.821     0.213
142.544     88.775    -1.091
144.617     88.755    -2.271
146.721     88.752    -3.725
148.855     88.724    -5.186
151.020     88.671    -6.673
153.217     88.645    -7.734
155.445     88.654    -9.237
157.706     88.646   -10.673
160.000     88.607   -12.395
162.327     88.568   -13.665
164.688     88.531   -15.292
167.084     88.487   -16.632
169.514     88.433   -18.143
171.980     88.389   -19.336
174.481     88.357   -20.690
177.019     88.338   -21.897
179.594     88.328   -23.293
182.206     88.316   -24.674
184.856     88.304   -26.047
187.545     88.317   -27.452
190.273     88.327   -29.002
193.041     88.321   -30.610
195.849     88.339   -32.043
198.697     88.382   -33.792
201.587     88.424   -35.692
204.520     88.427   -38.032
207.494     88.390   -40.120
210.512     88.338   -42.375
213.574     88.265   -44.329
216.681     88.184   -46.384
219.833     88.113   -48.169
223.030     88.032   -50.134
226.274     87.964   -51.766
229.565     87.918   -53.646
232.905     87.865   -55.469
236.292     87.814   -57.332
239.729     87.786   -59.167
243.216     87.771   -61.225
246.754     87.736   -63.468
250.343     87.683   -65.653
253.984     87.635   -67.948
257.678     87.563   -70.240
261.426     87.489   -72.432
265.229     87.446   -74.612
269.087     87.389   -77.124
273.001     87.311   -79.448
276.972     87.239   -81.875
281.000     87.182   -84.161
285.088     87.132   -86.788
289.234     87.067   -89.355
293.441     86.995   -92.063
297.709     86.924   -94.678
302.040     86.859   -97.436
306.433     86.801  -100.240
310.890     86.729  -103.243
315.412     86.647  -106.199
320.000     86.571  -109.187
324.655     86.500  -112.269
329.377     86.431  -115.427
334.168     86.359  -118.741
339.028     86.285  -122.074
343.959     86.216  -125.577
348.962     86.139  -129.171
354.038     86.055  -132.927
359.188     85.960  -136.710
364.412     85.843  -140.695
369.713     85.713  -144.434
375.090     85.601  -148.288
380.546     85.491  -152.123
386.081     85.381  -156.063
391.697     85.279  -159.970
397.394     85.187  -163.994
403.175     85.097  -168.046
409.039     85.007  -172.173
414.989     84.935  -176.297
421.025     84.863   179.493
427.149     84.799   175.244
433.362     84.738   170.924
439.665     84.674   166.632
446.060     84.625   162.343
452.548     84.593   158.097
459.131     84.565   153.775
465.809     84.553   149.498
472.584     84.556   145.150
479.458     84.556   140.772
486.432     84.576   136.490
493.507     84.605   132.077
500.686     84.648   127.659
507.968     84.669   122.767
515.357     84.602   118.253
522.853     84.559   114.180
530.458     84.530   110.225
538.174     84.522   106.467
546.002     84.534   102.796
553.943     84.558    99.179
562.001     84.594    95.711
570.175     84.641    92.330
578.469     84.720    89.139
586.883     84.842    85.873
595.419     84.996    82.474
604.080     85.154    78.777
612.866     85.289    74.960
621.780     85.415    71.108
630.824     85.540    67.210
640.000     85.673    63.107
649.309     85.791    58.270
658.753     85.685    53.245
668.335     85.495    49.319
678.056     85.314    45.903
687.919     85.138    42.958
697.925     84.986    40.414
708.077     84.845    38.070
718.376     84.694    36.311
728.825     84.659    35.038
739.426     84.716    33.556
750.181     84.797    31.729
761.093     84.883    29.789
772.163     84.970    27.737
783.394     85.050    25.690
794.789     85.151    23.657
806.349     85.276    21.659
818.078     85.419    19.353
829.977     85.551    17.063
842.050     85.692    14.469
854.298     85.814    11.936
866.724     85.943     9.059
879.330     86.023     6.171
892.120     86.097     3.333
905.097     86.151     0.485
918.262     86.199    -2.415
931.618     86.231    -5.227
945.169     86.256    -8.033
958.917     86.276   -10.786
972.864     86.282   -13.593
987.015     86.291   -16.343
1001.37     86.294   -19.150
1015.94     86.281   -22.026
1030.71     86.238   -24.860
1045.71     86.180   -27.504
1060.92     86.130   -30.030
1076.35     86.083   -32.602
1092.00     86.043   -34.959
1107.89     86.012   -37.395
1124.00     85.981   -39.812
1140.35     85.961   -42.393
1156.94     85.939   -44.798
1173.77     85.911   -47.471
1190.84     85.900   -50.083
1208.16     85.861   -52.950
1225.73     85.799   -55.754
1243.56     85.711   -58.515
1261.65     85.625   -61.140
1280.00     85.524   -63.725
1298.62     85.436   -66.288
1317.51     85.343   -68.807
1336.67     85.245   -71.378
1356.11     85.131   -73.825
1375.84     85.028   -76.247
1395.85     84.926   -78.496
1416.15     84.829   -80.932
1436.75     84.719   -83.203
1457.65     84.606   -85.466
1478.85     84.490   -87.432
1500.36     84.407   -89.324
1522.19     84.393   -90.868
1544.33     84.432   -93.039
1566.79     84.458   -95.267
1589.58     84.503   -97.744
1612.70     84.543  -100.323
1636.16     84.585  -103.156
1659.95     84.618  -106.018
1684.10     84.646  -109.057
1708.60     84.684  -112.151
1733.45     84.724  -115.426
1758.66     84.772  -119.024
1784.24     84.797  -122.987
1810.19     84.764  -127.360
1836.52     84.632  -131.706
1863.24     84.430  -135.883
1890.34     84.206  -139.427
1917.83     83.999  -142.987
1945.73     83.778  -146.124
1974.03     83.587  -149.471
2002.74     83.374  -152.381
2031.87     83.194  -155.562
2061.43     82.994  -158.427
2091.41     82.804  -161.576
2121.83     82.557  -164.301
2152.69     82.324  -166.709
2184.01     82.136  -168.491
2215.77     82.041  -170.201
2248.00     82.024  -171.833
2280.70     82.089  -173.639
2313.87     82.230  -175.747
2347.53     82.431  -178.047
2381.68     82.717   178.999
2416.32     83.064   175.687
2451.46     83.449   170.959
2487.12     83.775   165.920
2523.30     84.052   159.699
2560.00     84.270   153.875
2597.24     84.460   146.844
2635.01     84.611   140.374
2673.34     84.733   132.637
2712.23     84.808   125.244
2751.68     84.808   116.851
2791.70     84.759   108.985
2832.31     84.682   100.472
2873.50     84.587    92.140
2915.30     84.468    83.220
2957.70     84.328    74.099
3000.72     84.135    64.417
3044.37     83.844    54.366
3088.65     83.467    44.665
3133.58     83.052    34.870
3179.16     82.639    25.707
3225.40     82.209    15.986
3272.31     81.805     7.299
3319.91     81.424    -2.180
3368.20     81.146   -10.513
3417.19     80.881   -20.583
3466.89     80.657   -29.282
3517.32     80.420   -39.485
3568.48     80.225   -48.144
3620.39     80.091   -57.743
3673.05     80.079   -66.437
3726.47     80.117   -76.420
3780.67     80.182   -86.007
3835.67     80.255   -96.252
3891.46     80.347  -106.218
3948.06     80.460  -116.377
4005.49     80.595  -126.697
4063.75     80.744  -136.899
4122.86     80.897  -147.692
4182.82     81.048  -157.967
4243.66     81.180  -169.268
4305.39     81.277  -179.487
4368.01     81.357   169.101
4431.55     81.431   159.301
4496.01     81.512   147.824
4561.40     81.613   138.280
4627.75     81.741   126.658
4695.06     81.867   116.475
4763.35     81.992   104.506
4832.64     82.095    93.543
4902.93     82.174    81.263
4974.24     82.236    69.660
5046.60     82.285    57.046
5120.00     82.285    44.458
5194.47     82.202    31.467
5270.03     82.054    18.626
5346.68     81.885     6.250
5424.45     81.703    -6.545
5503.35     81.492   -18.446
5583.40     81.268   -30.974
5664.61     81.071   -41.576
5747.01     80.999   -52.954
5830.60     81.176   -62.628
5915.41     81.477   -75.917
6001.45     81.774   -87.929
6088.74     82.058  -103.086
6177.30     82.326  -116.609
6267.15     82.582  -132.841
6358.31     82.732  -148.394
6450.80     82.720  -165.634
6544.62     82.645   178.362
6639.82     82.485   161.145
6736.40     82.195   144.725
6834.38     81.825   128.555
6933.79     81.454   113.057
7034.64     81.113    98.188
7136.96     80.812    83.052
7240.77     80.594    69.141
7346.09     80.526    53.873
7452.94     80.573    39.357
7561.35     80.646    21.968
7671.33     80.737     6.111
7782.91     80.813   -13.627
7896.12     80.727   -31.328
8010.97     80.447   -52.114
8127.49     80.070   -69.426
8245.71     79.599   -88.849
8365.65     79.097  -104.675
8487.33     78.730  -121.451
8610.78     78.542  -136.374
8736.03     78.503  -152.813
8863.09     78.626  -168.862
8992.01     78.867   173.395
9122.80     79.168   154.511
9255.50     79.481   134.256
9390.12     79.697   111.563
9526.70     79.714    88.586
9665.27     79.483    63.140
9805.86     78.955    39.573
9948.49     78.192    14.321
10093.2     77.308    -6.757
10240.0     76.397   -29.846
10388.9     75.694   -47.690
10540.1     75.167   -70.449
10693.4     74.735   -89.530
10848.9     74.234  -113.877
11006.7     73.434  -134.422
11166.8     72.529  -155.853
11329.2     71.744  -172.465
11494.0     71.323   170.580
11661.2     71.370   154.749
11830.8     71.676   136.161
12002.9     72.100   116.661
12177.5     72.702    96.048
12354.6     73.479    72.413
12534.3     74.292    47.148
12716.6     74.883    16.645
12901.6     75.067   -12.431
13089.2     74.959   -45.016
13279.6     74.616   -72.993
13472.8     74.000  -104.412
13668.8     73.631  -126.302
13867.6     73.903  -155.860
14069.3     74.347   178.075
14273.9     74.653   142.976
14481.5     74.713   112.244
14692.2     74.580    75.560
14905.9     74.254    42.769
15122.7     73.822     5.742
15342.7     73.226   -30.071
15565.8     71.985   -69.611
15792.2     69.706  -103.115
16021.9     67.747  -124.505
16255.0     67.972  -142.561
16491.4     69.923  -169.202
16731.3     71.677   146.384
16974.7     71.974    96.690
17221.6     69.808    40.078
17472.1     66.395     3.676
17726.2     63.241   -34.541
17984.0     60.162   -57.344
18245.6     55.999   -78.748
18511.0     57.153   -58.336
18780.2     63.490   -92.796
19053.4     66.375  -138.528
19330.5     67.360   164.119
19611.7     68.479   125.091
19897.0     70.163    52.316
20186.4     69.915    12.660
20480.0     69.673   -27.551
20777.9     69.437   -68.301
21080.1     69.206  -109.571
21386.7     68.977  -151.346
21697.8     68.742   166.363
22013.4     68.497   123.498
