Freq[Hz]     dBSPL  Phase[Deg]
5.00000     -5.036   -36.976
5.07273     -4.348   -30.330
5.14651     -3.663   -23.605
5.22137     -2.980   -16.799
5.29732     -2.300    -9.912
5.37437     -1.622    -2.942
5.45254     -0.946     4.112
5.53185     -0.273    11.251
5.61231      0.398    18.477
5.69394      1.067    25.790
5.77676      1.734    33.193
5.86079      2.398    40.685
5.94604      3.061    48.269
6.03252      3.722    55.946
6.12027      4.380    63.717
6.20929      5.037    71.582
6.29961      5.692    79.544
6.39124      6.346    87.604
6.48420      6.998    95.763
6.57851      7.648   104.021
6.67420      8.297   112.382
6.77128      8.944   120.845
6.86977      9.590   129.412
6.96969     10.235   138.085
7.07107     10.879   146.865
7.17392     11.522   155.753
7.27827     12.165   164.751
7.38413     12.806   173.861
7.49154     13.447  -176.916
7.60050     14.087  -167.578
7.71105     14.728  -158.123
7.82321     15.368  -148.549
7.93701     16.008  -138.855
8.05245     16.649  -129.038
8.16958     17.290  -119.097
8.28841     17.931  -109.028
8.40896     18.574   -98.830
8.53128     19.217   -88.499
8.65537     19.861   -78.034
8.78126     20.507   -67.432
8.90899     21.154   -56.688
9.03857     21.803   -45.801
9.17004     22.454   -34.768
9.30342     23.107   -23.583
9.43874     23.762   -12.245
9.57603     24.420    -0.749
9.71532     25.080    10.909
9.85663     25.742    22.732
10.0000     26.407    34.725
10.1455     26.987  -120.291
10.2930     27.324  -122.772
10.4427     27.776   -67.666
10.5946     28.279   -52.050
10.7487     28.860   -21.881
10.9051     29.510    -7.337
11.0637     30.214    12.121
11.2246     30.954    25.370
11.3879     31.723    38.849
11.5535     32.517    50.935
11.7216     33.324    60.541
11.8921     34.139    71.565
12.0650     34.956    78.486
12.2405     35.773    88.612
12.4186     36.584    93.574
12.5992     37.391   102.940
12.7825     38.187   106.429
12.9684     38.979   115.172
13.1570     39.760   117.517
13.3484     40.536   125.485
13.5426     41.302   127.667
13.7395     42.054   134.119
13.9394     42.800   136.589
14.1421     43.541   141.794
14.3478     44.273   144.447
14.5565     44.999   148.611
14.7683     45.716   151.378
14.9831     46.424   154.678
15.2010     47.129   157.549
15.4221     47.829   160.130
15.6464     48.523   163.046
15.8740     49.210   164.979
16.1049     49.892   167.921
16.3392     50.571   169.316
16.5768     51.245   172.283
16.8179     51.916   173.207
17.0626     52.585   176.143
17.3107     53.246   176.618
17.5625     53.906   179.492
17.8180     54.564   179.863
18.0771     55.222  -177.766
18.3401     55.876  -177.280
18.6068     56.530  -175.402
18.8775     57.180  -174.825
19.1521     57.827  -173.404
19.4306     58.474  -172.734
19.7133     59.122  -171.719
20.0000     59.770  -171.026
20.2909     60.416  -170.418
20.5860     61.064  -169.683
20.8855     61.713  -169.448
21.1893     62.360  -168.734
21.4975     63.007  -168.887
21.8102     63.654  -168.201
22.1274     64.304  -168.680
22.4492     64.954  -168.066
22.7758     65.603  -168.924
23.1071     66.255  -168.443
23.4432     66.902  -169.539
23.7841     67.550  -169.422
24.1301     68.196  -170.620
24.4811     68.838  -170.965
24.8372     69.478  -172.256
25.1984     70.114  -173.071
25.5649     70.745  -174.534
25.9368     71.362  -175.832
26.3141     71.968  -177.440
26.6968     72.562  -179.219
27.0851     73.140   178.869
27.4791     73.696   176.626
27.8788     74.225   174.691
28.2843     74.727   172.143
28.6957     75.197   170.044
29.1131     75.641   167.081
29.5365     76.037   164.964
29.9661     76.410   162.066
30.4020     76.783   160.154
30.8442     77.119   157.333
31.2929     77.458   155.506
31.7480     77.780   152.654
32.2098     78.060   150.521
32.6783     78.350   147.840
33.1536     78.637   145.565
33.6359     78.890   142.965
34.1251     79.111   140.771
34.6215     79.324   138.505
35.1250     79.520   136.239
35.6359     79.683   134.051
36.1543     79.846   131.949
36.6802     80.014   130.149
37.2137     80.172   128.064
37.7550     80.324   126.514
38.3041     80.484   124.472
38.8613     80.639   122.884
39.4265     80.790   120.768
40.0000     80.944   119.554
40.5818     81.091   117.479
41.1721     81.235   116.228
41.7710     81.384   114.385
42.3785     81.526   113.112
42.9949     81.665   111.380
43.6203     81.810   110.039
44.2548     81.957   108.407
44.8985     82.103   107.005
45.5515     82.251   105.508
46.2141     82.401   104.082
46.8863     82.551   102.663
47.5683     82.701   101.153
48.2602     82.854    99.836
48.9621     83.013    98.280
49.6743     83.173    96.991
50.3968     83.337    95.289
51.1299     83.501    93.941
51.8736     83.649    92.068
52.6281     83.793    90.850
53.3936     83.948    89.066
54.1702     84.110    87.816
54.9581     84.273    85.993
55.7575     84.436    84.592
56.5685     84.601    82.758
57.3914     84.766    81.168
58.2261     84.926    79.283
59.0730     85.076    77.531
59.9323     85.218    75.650
60.8040     85.364    73.831
61.6884     85.510    71.958
62.5857     85.647    69.977
63.4960     85.776    68.079
64.4196     85.900    66.017
65.3566     86.021    64.151
66.3073     86.138    61.949
67.2717     86.244    60.047
68.2502     86.343    57.756
69.2429     86.432    55.868
70.2501     86.511    53.504
71.2719     86.583    51.597
72.3086     86.646    49.265
73.3603     86.701    47.317
74.4274     86.750    45.074
75.5099     86.793    43.116
76.6083     86.825    40.921
77.7226     86.833    38.877
78.8531     86.827    36.913
80.0000     86.845    35.183
81.1636     86.885    33.329
82.3442     86.915    31.335
83.5419     86.937    29.428
84.7570     86.948    27.438
85.9899     86.950    25.646
87.2406     86.949    23.731
88.5096     86.964    22.120
89.7970     86.991    20.106
91.1031     87.004    18.396
92.4282     87.009    16.375
93.7726     87.016    14.735
95.1366     87.023    12.744
96.5204     87.032    11.025
97.9243     87.036     8.993
99.3486     87.024     7.228
100.794     86.999     5.338
102.260     86.964     3.753
103.747     86.963     2.381
105.256     87.043     0.956
106.787     87.135    -1.029
108.340     87.170    -3.280
109.916     87.179    -5.421
111.515     87.173    -7.673
113.137     87.146    -9.747
114.783     87.106   -11.853
116.452     87.068   -13.643
118.146     87.040   -15.633
119.865     87.018   -17.390
121.608     86.995   -19.444
123.377     86.971   -21.197
125.171     86.935   -23.252
126.992     86.890   -24.854
128.839     86.903   -26.532
130.713     86.955   -28.504
132.615     86.948   -30.968
134.543     86.895   -33.148
136.500     86.838   -35.244
138.486     86.781   -37.239
140.500     86.719   -39.209
142.544     86.660   -41.057
144.617     86.626   -42.805
146.721     86.610   -44.796
148.855     86.568   -46.844
151.020     86.502   -48.860
153.217     86.462   -50.530
155.445     86.458   -52.556
157.706     86.435   -54.621
160.000     86.383   -56.853
162.327     86.329   -58.760
164.688     86.280   -60.907
167.084     86.221   -62.879
169.514     86.154   -64.920
171.980     86.096   -66.730
174.481     86.051   -68.630
177.019     86.021   -70.432
179.594     86.000   -72.393
182.206     85.976   -74.361
184.856     85.955   -76.313
187.545     85.957   -78.302
190.273     85.957   -80.441
193.041     85.943   -82.617
195.849     85.953   -84.667
198.697     85.985   -86.996
201.587     86.014   -89.501
204.520     86.006   -92.375
207.494     85.957   -95.053
210.512     85.896   -97.801
213.574     85.815  -100.323
216.681     85.728  -102.843
219.833     85.653  -105.162
223.030     85.569  -107.578
226.274     85.503  -109.707
229.565     85.461  -112.040
232.905     85.413  -114.340
236.292     85.370  -116.649
239.729     85.348  -118.937
243.216     85.340  -121.404
246.754     85.317  -124.016
250.343     85.284  -126.567
253.984     85.258  -129.222
257.678     85.211  -131.888
261.426     85.161  -134.435
265.229     85.136  -136.961
269.087     85.101  -139.694
273.001     85.057  -142.230
276.972     85.029  -144.841
281.000     85.014  -147.371
285.088     85.007  -150.133
289.234     84.993  -152.873
293.441     84.973  -155.698
297.709     84.953  -158.452
302.040     84.937  -161.238
306.433     84.938  -164.025
310.890     84.931  -166.998
315.412     84.913  -169.905
320.000     84.901  -172.799
324.655     84.893  -175.718
329.377     84.888  -178.635
334.168     84.889   178.363
339.028     84.889   175.392
343.959     84.900   172.349
348.962     84.912   169.240
354.038     84.920   166.030
359.188     84.926   162.820
364.412     84.923   159.407
369.713     84.891   156.150
375.090     84.868   152.901
380.546     84.845   149.708
386.081     84.818   146.448
391.697     84.792   143.250
397.394     84.765   140.017
403.175     84.735   136.819
409.039     84.701   133.593
414.989     84.673   130.463
421.025     84.642   127.288
427.149     84.612   124.135
433.362     84.583   120.974
439.665     84.549   117.825
446.060     84.519   114.706
452.548     84.493   111.638
459.131     84.467   108.499
465.809     84.441   105.427
472.584     84.426   102.319
479.458     84.398    99.157
486.432     84.380    96.117
493.507     84.371    92.923
500.686     84.360    89.707
507.968     84.340    86.080
515.357     84.232    82.611
522.853     84.120    79.515
530.458     84.017    76.526
538.174     83.918    73.667
546.002     83.827    70.902
553.943     83.741    68.186
562.001     83.659    65.580
570.175     83.581    63.028
578.469     83.518    60.650
586.883     83.488    58.277
595.419     83.487    55.826
604.080     83.493    53.179
612.866     83.493    50.448
621.780     83.496    47.663
630.824     83.505    44.778
640.000     83.527    41.712
649.309     83.549    37.947
658.753     83.379    33.912
668.335     83.128    30.763
678.056     82.882    28.071
687.919     82.641    25.773
697.925     82.418    23.803
708.077     82.199    22.091
718.376     81.991    20.974
728.825     81.900    20.226
739.426     81.897    19.263
750.181     81.924    17.965
761.093     81.961    16.535
772.163     82.007    14.993
783.394     82.055    13.400
794.789     82.129    11.825
806.349     82.235    10.214
818.078     82.366     8.319
829.977     82.495     6.339
842.050     82.642     4.080
854.298     82.780     1.742
866.724     82.932    -0.926
879.330     83.044    -3.768
892.120     83.158    -6.627
905.097     83.245    -9.727
918.262     83.305   -12.894
931.618     83.338   -15.987
945.169     83.363   -19.022
958.917     83.384   -22.038
972.864     83.392   -25.111
987.015     83.403   -28.158
1001.37     83.408   -31.294
1015.94     83.396   -34.510
1030.71     83.353   -37.733
1045.71     83.293   -40.756
1060.92     83.239   -43.734
1076.35     83.187   -46.720
1092.00     83.139   -49.586
1107.89     83.096   -52.465
1124.00     83.051   -55.435
1140.35     83.013   -58.479
1156.94     82.971   -61.457
1173.77     82.919   -64.626
1190.84     82.883   -67.840
1208.16     82.809   -71.304
1225.73     82.693   -74.744
1243.56     82.540   -77.993
1261.65     82.390   -81.060
1280.00     82.228   -84.016
1298.62     82.079   -86.915
1317.51     81.928   -89.741
1336.67     81.776   -92.571
1356.11     81.610   -95.281
1375.84     81.456   -97.902
1395.85     81.308  -100.381
1416.15     81.165  -102.955
1436.75     81.016  -105.414
1457.65     80.861  -107.764
1478.85     80.711  -109.874
1500.36     80.592  -111.727
1522.19     80.564  -113.260
1544.33     80.606  -115.367
1566.79     80.650  -117.690
1589.58     80.709  -120.256
1612.70     80.771  -122.998
1636.16     80.834  -125.985
1659.95     80.893  -129.056
1684.10     80.949  -132.311
1708.60     81.014  -135.645
1733.45     81.084  -139.166
1758.66     81.161  -142.981
1784.24     81.226  -147.136
1810.19     81.241  -151.678
1836.52     81.185  -156.255
1863.24     81.063  -160.770
1890.34     80.929  -164.798
1917.83     80.791  -168.904
1945.73     80.655  -172.663
1974.03     80.517  -176.639
2002.74     80.378   179.786
2031.87     80.238   175.985
2061.43     80.098   172.595
2091.41     79.968   169.175
2121.83     79.881   166.150
2152.69     79.845   162.864
2184.01     79.837   159.534
2215.77     79.837   155.930
2248.00     79.842   152.286
2280.70     79.854   148.534
2313.87     79.868   144.669
2347.53     79.889   140.860
2381.68     79.915   136.800
2416.32     79.952   132.954
2451.46     79.999   128.682
2487.12     80.059   124.765
2523.30     80.124   120.161
2560.00     80.200   116.109
2597.24     80.282   111.123
2635.01     80.379   106.741
2673.34     80.471   101.169
2712.23     80.519    95.801
2751.68     80.441    89.637
2791.70     80.289    84.541
2832.31     80.121    79.364
2873.50     79.957    74.850
2915.30     79.792    70.223
2957.70     79.624    65.983
3000.72     79.461    61.963
3044.37     79.328    58.107
3088.65     79.237    54.502
3133.58     79.160    50.451
3179.16     79.091    46.868
3225.40     79.018    42.625
3272.31     78.962    39.178
3319.91     78.891    34.630
3368.20     78.791    31.155
3417.19     78.639    26.586
3466.89     78.485    23.767
3517.32     78.318    19.873
3568.48     78.159    17.713
3620.39     78.069    15.055
3673.05     78.121    13.404
3726.47     78.253    10.429
3780.67     78.409     7.604
3835.67     78.568     3.899
3891.46     78.715     0.086
3948.06     78.817    -4.178
4005.49     78.870    -8.575
4063.75     78.904   -12.721
4122.86     78.934   -17.468
4182.82     78.934   -21.979
4243.66     78.819   -27.762
4305.39     78.535   -32.132
4368.01     78.165   -36.774
4431.55     77.799   -38.989
4496.01     77.465   -41.971
4561.40     77.305   -42.221
4627.75     77.325   -44.775
4695.06     77.395   -46.330
4763.35     77.472   -49.916
4832.64     77.521   -52.664
4902.93     77.507   -56.661
4974.24     77.459   -59.641
5046.60     77.406   -63.196
5120.00     77.357   -66.243
5194.47     77.320   -69.557
5270.03     77.294   -73.027
5346.68     77.268   -76.532
5424.45     77.195   -80.942
5503.35     77.017   -84.712
5583.40     76.759   -89.078
5664.61     76.490   -91.710
5747.01     76.193   -95.715
5830.60     75.841   -97.404
5915.41     75.447  -100.600
6001.45     75.113  -100.168
6088.74     75.025  -101.522
6177.30     75.153  -101.406
6267.15     75.338  -104.618
6358.31     75.391  -107.307
6450.80     75.237  -111.313
6544.62     75.021  -112.939
6639.82     74.925  -114.521
6736.40     75.022  -115.485
6834.38     75.238  -117.726
6933.79     75.460  -120.905
7034.64     75.643  -124.576
7136.96     75.769  -129.605
7240.77     75.746  -134.570
7346.09     75.459  -140.786
7452.94     74.982  -143.898
7561.35     74.566  -147.230
7671.33     74.349  -147.752
7782.91     74.224  -151.572
7896.12     74.075  -152.655
8010.97     73.895  -156.846
8127.49     73.726  -157.716
8245.71     73.603  -161.188
8365.65     73.520  -162.345
8487.33     73.471  -165.666
8610.78     73.452  -167.580
8736.03     73.425  -171.155
8863.09     73.367  -173.888
8992.01     73.308  -177.046
9122.80     73.311   179.945
9255.50     73.373   176.541
9390.12     73.402   171.596
9526.70     73.321   167.171
9665.27     73.126   160.969
9805.86     72.798   156.811
9948.49     72.357   150.417
10093.2     71.784   147.591
10240.0     71.140   142.341
10388.9     70.572   142.165
10540.1     70.038   137.272
10693.4     69.344   137.198
10848.9     68.622   135.071
11006.7     68.068   137.993
11166.8     67.783   138.836
11329.2     67.828   142.025
11494.0     68.087   141.898
11661.2     68.432   142.072
11830.8     68.823   140.123
12002.9     69.204   137.377
12177.5     69.483   133.833
12354.6     69.633   129.244
12534.3     69.734   126.383
12716.6     69.879   121.378
12901.6     70.085   118.545
13089.2     70.208   110.710
13279.6     70.087   106.795
13472.8     69.697    98.251
13668.8     69.191    97.969
13867.6     68.864    92.902
14069.3     68.953    94.641
14273.9     69.076    87.851
14481.5     69.126    86.991
14692.2     69.279    80.472
14905.9     69.438    77.352
15122.7     69.464    69.593
15342.7     69.448    64.437
15565.8     69.104    54.616
15792.2     67.665    49.254
16021.9     66.551    56.179
16255.0     67.825    63.912
16491.4     70.064    58.817
16731.3     70.685    41.919
16974.7     70.346    35.834
17221.6     70.435    26.552
17472.1     70.926    24.606
17726.2     71.530     9.337
17984.0     71.995     4.338
18245.6     71.916   -17.294
18511.0     71.825   -19.722
18780.2     71.874   -41.474
19053.4     71.731   -46.828
19330.5     71.650   -71.150
19611.7     71.692   -80.203
19897.0     71.530  -125.558
20186.4     71.571  -130.698
20480.0     71.612  -135.867
20777.9     71.653  -141.067
21080.1     71.694  -146.298
21386.7     71.735  -151.561
21697.8     71.776  -156.856
22013.4     71.816  -162.183
