Freq[Hz]     dBSPL  Phase[Deg]
5.00000    -33.985  -117.431
5.07273    -33.849  -117.307
5.14651    -33.714  -117.181
5.22137    -33.578  -117.052
5.29732    -33.442  -116.921
5.37437    -33.306  -116.787
5.45254    -33.170  -116.652
5.53185    -33.034  -116.513
5.61231    -32.898  -116.373
5.69394    -32.762  -116.229
5.77676    -32.626  -116.083
5.86079    -32.490  -115.935
5.94604    -32.354  -115.784
6.03252    -32.218  -115.630
6.12027    -32.082  -115.473
6.20929    -31.946  -115.313
6.29961    -31.810  -115.151
6.39124    -31.674  -114.985
6.48420    -31.538  -114.817
6.57851    -31.402  -114.646
6.67420    -31.266  -114.471
6.77128    -31.130  -114.294
6.86977    -30.995  -114.113
6.96969    -30.859  -113.929
7.07107    -30.723  -113.741
7.17392    -30.588  -113.551
7.27827    -30.452  -113.357
7.38413    -30.317  -113.159
7.49154    -30.181  -112.958
7.60050    -30.046  -112.754
7.71105    -29.911  -112.546
7.82321    -29.776  -112.334
7.93701    -29.641  -112.118
8.05245    -29.507  -111.899
8.16958    -29.373  -111.676
8.28841    -29.238  -111.449
8.40896    -29.104  -111.218
8.53128    -28.971  -110.983
8.65537    -28.837  -110.744
8.78126    -28.704  -110.501
8.90899    -28.571  -110.254
9.03857    -28.439  -110.003
9.17004    -28.306  -109.748
9.30342    -28.175  -109.488
9.43874    -28.043  -109.225
9.57603    -27.912  -108.957
9.71532    -27.781  -108.684
9.85663    -27.651  -108.408
10.0000    -27.521  -108.127
10.1455    -27.392  -107.841
10.2930    -27.263  -107.551
10.4427    -27.135  -107.257
10.5946    -27.007  -106.959
10.7487    -26.880  -106.656
10.9051    -26.754  -106.348
11.0637    -26.628  -106.036
11.2246    -26.503  -105.720
11.3879    -26.379  -105.400
11.5535    -26.256  -105.075
11.7216    -26.133  -104.746
11.8921    -26.011  -104.413
12.0650    -25.890  -104.075
12.2405    -25.771  -103.734
12.4186    -25.652  -103.388
12.5992    -25.534  -103.038
12.7825    -25.417  -102.685
12.9684    -25.301  -102.328
13.1570    -25.187  -101.967
13.3484    -25.073  -101.603
13.5426    -24.961  -101.235
13.7395    -24.851  -100.864
13.9394    -24.741  -100.491
14.1421    -24.633  -100.114
14.3478    -24.527   -99.735
14.5565    -24.422   -99.354
14.7683    -24.319   -98.970
14.9831    -24.217   -98.584
15.2010    -24.117   -98.197
15.4221    -24.019   -97.809
15.6464    -23.923   -97.419
15.8740    -23.828   -97.029
16.1049    -23.736   -96.639
16.3392    -23.645   -96.249
16.5768    -23.557   -95.859
16.8179    -23.471   -95.470
17.0626    -23.387   -95.083
17.3107    -23.305   -94.698
17.5625    -23.226   -94.315
17.8180    -23.149   -93.934
18.0771    -23.075   -93.558
18.3401    -23.003   -93.185
18.6068    -22.935   -92.817
18.8775    -22.868   -92.455
19.1521    -22.805   -92.098
19.4306    -22.745   -91.748
19.7133    -22.688   -91.406
20.0000    -22.633   -91.072
20.2909    -22.583   -90.747
20.5860    -22.535   -90.432
20.8855    -22.491   -90.127
21.1893    -22.450   -89.835
21.4975    -22.413   -89.554
21.8102    -22.380   -89.288
22.1274    -22.351   -89.036
22.4492    -22.326   -88.800
22.7758    -22.305   -88.581
23.1071    -22.289   -88.379
23.4432    -22.277   -88.197
23.7841    -22.269   -88.035
24.1301    -22.267   -87.894
24.4811    -22.270   -87.777
24.8372    -22.278   -87.684
25.1984    -22.292   -87.616
25.5649    -22.312   -87.576
25.9368    -22.338   -87.563
26.3141    -22.371   -87.581
26.6968    -22.410   -87.631
27.0851    -22.457   -87.714
27.4791    -22.512   -87.831
27.8788    -22.575   -87.985
28.2843    -22.646   -88.178
28.6957    -22.727   -88.411
29.1131    -22.819   -88.686
29.5365    -22.920   -89.006
29.9661    -23.034   -89.373
30.4020    -23.159   -89.792
30.8442    -23.299   -90.263
31.2929    -23.453   -90.790
31.7480    -23.624   -91.376
32.2098    -23.813   -92.020
32.6783    -24.022   -92.729
33.1536    -24.253   -93.504
33.6359    -24.508   -94.347
34.1251    -24.791   -95.260
34.6215    -25.104   -96.246
35.1250    -25.452   -97.307
35.6359    -25.840   -98.444
36.1543    -26.271   -99.660
36.6802    -26.754  -100.957
37.2137    -27.297  -102.334
37.7550    -27.908  -103.791
38.3041    -28.602  -105.328
38.8613    -29.394  -106.943
39.4265    -30.306  -108.635
40.0000    -31.368  -110.400
40.5818    -32.626  -112.233
41.1721    -34.145  -114.130
41.7710    -36.040  -116.084
42.3785    -38.522  -118.090
42.9949    -42.070  -120.138
43.6203    -48.242  -122.220
44.2548    -76.900    55.672
44.8985    -47.661    53.549
45.5515    -41.837    51.420
46.2141    -38.431    49.294
46.8863    -36.041    47.180
47.5683    -34.218    45.089
48.2602    -32.761    43.027
48.9621    -31.562    41.002
49.6743    -30.556    39.020
50.3968    -29.699    37.088
51.1299    -27.656    32.497
51.8736    -27.644    31.941
52.6281    -27.660    31.356
53.3936    -27.664    30.867
54.1702    -27.677    30.343
54.9581    -27.690    29.818
55.7575    -27.708    29.268
56.5685    -27.728    28.731
57.3914    -27.751    28.210
58.2261    -27.776    27.686
59.0730    -27.811    27.134
59.9323    -27.847    26.635
60.8040    -27.885    26.099
61.6884    -27.929    25.579
62.5857    -27.978    25.056
63.4960    -28.031    24.543
64.4196    -28.088    24.031
65.3566    -28.152    23.517
66.3073    -28.219    23.016
67.2717    -28.293    22.516
68.2502    -28.372    22.019
69.2429    -28.457    21.531
70.2501    -28.549    21.048
71.2719    -28.647    20.570
72.3086    -28.752    20.096
73.3603    -28.864    19.633
74.4274    -28.984    19.178
75.5099    -29.112    18.734
76.6083    -29.250    18.301
77.7226    -29.396    17.874
78.8531    -29.552    17.464
80.0000    -29.719    17.070
81.1636    -29.897    16.690
82.3442    -30.088    16.329
83.5419    -30.291    15.988
84.7570    -30.509    15.669
85.9899    -30.742    15.381
87.2406    -30.991    15.121
88.5096    -31.259    14.897
89.7970    -31.547    14.715
91.1031    -31.857    14.581
92.4282    -32.191    14.504
93.7726    -32.552    14.494
95.1366    -32.942    14.565
96.5204    -33.366    14.733
97.9243    -33.828    15.018
99.3486    -34.333    15.449
100.794    -34.886    16.056
102.260    -35.495    16.917
103.747    -36.168    18.071
105.256    -36.915    19.617
106.787    -37.745    21.702
108.340    -38.672    24.528
109.916    -39.701    28.397
111.515    -40.830    33.763
113.137    -42.023    41.284
114.783    -43.172    51.764
116.452    -44.035    65.731
118.146    -44.271    82.350
119.865    -43.700    98.905
121.608    -42.514   112.735
123.377    -41.052   123.069
125.171    -39.551   130.457
126.992    -38.117   135.703
128.839    -36.783   139.460
130.713    -35.552   142.171
132.615    -34.416   144.141
134.543    -33.363   145.565
136.500    -32.384   146.585
138.486    -31.467   147.293
140.500    -30.606   147.748
142.544    -29.793   148.009
144.617    -29.023   148.115
146.721    -28.290   148.091
148.855    -27.590   147.953
151.020    -26.920   147.720
153.217    -26.275   147.404
155.445    -25.655   147.013
157.706    -25.056   146.559
160.000    -24.477   146.044
162.327    -23.916   145.484
164.688    -23.371   144.871
167.084    -22.842   144.215
169.514    -22.326   143.512
171.980    -21.824   142.771
174.481    -21.333   141.997
177.019    -20.854   141.187
179.594    -20.385   140.341
182.206    -19.927   139.462
184.856    -19.477   138.551
187.545    -19.036   137.603
190.273    -18.604   136.622
193.041    -18.181   135.605
195.849    -17.765   134.567
198.697    -17.355   133.509
201.587    -16.953   132.409
204.520    -16.558   131.267
207.494    -16.168   130.103
210.512    -15.787   128.910
213.574    -15.413   127.687
216.681    -15.044   126.430
219.833    -14.682   125.150
223.030    -14.326   123.827
226.274    -13.977   122.488
229.565    -13.633   121.112
232.905    -13.292   119.717
236.292    -12.961   118.285
239.729    -12.635   116.824
243.216    -12.312   115.340
246.754    -11.996   113.812
250.343    -11.690   112.227
253.984    -11.391   110.633
257.678    -11.098   109.039
261.426    -10.812   107.403
265.229    -10.530   105.765
269.087    -10.254   104.091
273.001     -9.982   102.369
276.972     -9.720   100.633
281.000     -9.461    98.870
285.088     -9.213    97.072
289.234     -8.967    95.251
293.441     -8.731    93.367
297.709     -8.513    91.493
302.040     -8.292    89.631
306.433     -8.080    87.727
310.890     -7.877    85.798
315.412     -7.678    83.861
320.000     -7.486    81.890
324.655     -7.306    79.877
329.377     -7.140    77.885
334.168     -6.977    75.840
339.028     -6.829    73.842
343.959     -6.680    71.868
348.962     -6.539    69.796
354.038     -6.407    67.768
359.188     -6.290    65.651
364.412     -6.188    63.553
369.713     -6.100    61.551
375.090     -6.007    59.571
380.546     -5.923    57.526
386.081     -5.858    55.483
391.697     -5.804    53.467
397.394     -5.756    51.522
403.175     -5.719    49.570
409.039     -5.696    47.649
414.989     -5.670    45.848
421.025     -5.656    44.025
427.149     -5.648    42.263
433.362     -5.641    40.523
439.665     -5.644    38.850
446.060     -5.640    37.165
452.548     -5.642    35.570
459.131     -5.654    33.868
465.809     -5.672    32.340
472.584     -5.685    30.729
479.458     -5.721    29.194
486.432     -5.753    27.766
493.507     -5.786    26.362
500.686     -5.828    25.051
507.968     -5.848    23.681
515.357     -5.894    22.347
522.853     -5.932    21.141
530.458     -5.970    19.878
538.174     -6.010    18.704
546.002     -6.046    17.549
553.943     -6.082    16.388
562.001     -6.121    15.290
570.175     -6.163    14.184
578.469     -6.203    13.173
586.883     -6.241    12.116
595.419     -6.278    11.158
604.080     -6.308    10.152
612.866     -6.344     9.188
621.780     -6.379     8.217
630.824     -6.413     7.366
640.000     -6.438     6.404
649.309     -6.467     5.508
658.753     -6.499     4.640
668.335     -6.524     3.827
678.056     -6.545     2.921
687.919     -6.571     2.057
697.925     -6.589     1.227
708.077     -6.606     0.362
718.376     -6.631    -0.463
728.825     -6.644    -1.309
739.426     -6.663    -2.139
750.181     -6.680    -2.958
761.093     -6.695    -3.759
772.163     -6.707    -4.560
783.394     -6.725    -5.390
794.789     -6.731    -6.177
806.349     -6.737    -6.997
818.078     -6.745    -7.843
829.977     -6.759    -8.621
842.050     -6.760    -9.450
854.298     -6.774   -10.274
866.724     -6.779   -11.054
879.330     -6.783   -11.884
892.120     -6.777   -12.666
905.097     -6.782   -13.537
918.262     -6.776   -14.396
931.618     -6.776   -15.281
945.169     -6.777   -16.138
958.917     -6.777   -16.999
972.864     -6.785   -17.887
987.015     -6.785   -18.726
1001.37     -6.784   -19.590
1015.94     -6.779   -20.440
1030.71     -6.774   -21.356
1045.71     -6.773   -22.198
1060.92     -6.765   -23.113
1076.35     -6.756   -24.057
1092.00     -6.746   -24.989
1107.89     -6.744   -25.863
1124.00     -6.740   -26.812
1140.35     -6.725   -27.772
1156.94     -6.711   -28.678
1173.77     -6.704   -29.707
1190.84     -6.688   -30.708
1208.16     -6.678   -31.672
1225.73     -6.655   -32.702
1243.56     -6.640   -33.740
1261.65     -6.619   -34.805
1280.00     -6.609   -35.861
1298.62     -6.584   -36.970
1317.51     -6.561   -38.094
1336.67     -6.538   -39.294
1356.11     -6.528   -40.477
1375.84     -6.505   -41.620
1395.85     -6.478   -42.758
1416.15     -6.443   -44.029
1436.75     -6.416   -45.380
1457.65     -6.392   -46.668
1478.85     -6.368   -48.041
1500.36     -6.331   -49.435
1522.19     -6.293   -50.878
1544.33     -6.258   -52.508
1566.79     -6.249   -54.137
1589.58     -6.228   -55.693
1612.70     -6.209   -57.373
1636.16     -6.192   -59.104
1659.95     -6.185   -60.865
1684.10     -6.187   -62.658
1708.60     -6.183   -64.429
1733.45     -6.180   -66.253
1758.66     -6.175   -68.169
1784.24     -6.178   -70.186
1810.19     -6.190   -72.168
1836.52     -6.196   -74.226
1863.24     -6.210   -76.411
1890.34     -6.231   -78.622
1917.83     -6.260   -80.900
1945.73     -6.297   -83.255
1974.03     -6.340   -85.676
2002.74     -6.398   -88.157
2031.87     -6.464   -90.711
2061.43     -6.544   -93.325
2091.41     -6.635   -95.980
2121.83     -6.740   -98.708
2152.69     -6.862  -101.483
2184.01     -6.999  -104.301
2215.77     -7.151  -107.161
2248.00     -7.323  -110.058
2280.70     -7.512  -113.009
2313.87     -7.725  -115.975
2347.53     -7.959  -118.950
2381.68     -8.218  -121.926
2416.32     -8.505  -124.888
2451.46     -8.818  -127.760
2487.12     -9.152  -130.515
2523.30     -9.501  -133.159
2560.00     -9.862  -135.688
2597.24    -10.228  -138.101
2635.01    -10.594  -140.475
2673.34    -10.971  -142.792
2712.23    -11.350  -145.053
2751.68    -11.739  -147.298
2791.70    -12.136  -149.487
2832.31    -12.539  -151.638
2873.50    -12.953  -153.752
2915.30    -13.375  -155.818
2957.70    -13.805  -157.843
3000.72    -14.245  -159.819
3044.37    -14.692  -161.752
3088.65    -15.148  -163.631
3133.58    -15.612  -165.468
3179.16    -16.085  -167.253
3225.40    -16.563  -168.983
3272.31    -17.049  -170.679
3319.91    -17.542  -172.320
3368.20    -18.042  -173.931
3417.19    -18.551  -175.501
3466.89    -19.066  -177.031
3517.32    -19.591  -178.538
3568.48    -20.127   179.995
3620.39    -20.671   178.560
3673.05    -21.226   177.161
3726.47    -21.790   175.803
3780.67    -22.369   174.460
3835.67    -22.959   173.165
3891.46    -23.565   171.900
3948.06    -24.185   170.682
4005.49    -24.820   169.504
4063.75    -25.472   168.383
4122.86    -26.140   167.295
4182.82    -26.827   166.246
4243.66    -27.534   165.231
4305.39    -28.266   164.276
4368.01    -29.021   163.349
4431.55    -29.806   162.463
4496.01    -30.626   161.600
4561.40    -31.485   160.810
4627.75    -32.391   160.036
4695.06    -33.360   159.365
4763.35    -34.394   158.861
4832.64    -35.496   158.537
4902.93    -36.682   158.417
4974.24    -37.961   158.558
5046.60    -39.361   158.915
5120.00    -40.949   159.730
5194.47    -42.753   161.341
5270.03    -44.852   164.167
5346.68    -47.365   169.211
5424.45    -50.437   178.990
5503.35    -53.915  -160.178
5583.40    -55.640  -121.741
5664.61    -53.506   -87.882
5747.01    -50.588   -71.257
5830.60    -48.211   -63.210
5915.41    -46.355   -58.879
6001.45    -44.878   -56.361
6088.74    -43.672   -54.843
6177.30    -42.669   -53.907
6267.15    -41.820   -53.365
6358.31    -41.093   -53.047
6450.80    -40.457   -52.914
6544.62    -39.902   -52.932
6639.82    -39.414   -53.045
6736.40    -38.982   -53.241
6834.38    -38.596   -53.495
6933.79    -38.253   -53.822
7034.64    -37.954   -54.196
7136.96    -37.690   -54.545
7240.77    -37.451   -54.916
7346.09    -37.241   -55.289
7452.94    -37.050   -55.647
7561.35    -36.878   -56.023
7671.33    -36.721   -56.402
7782.91    -36.584   -56.791
7896.12    -36.460   -57.190
8010.97    -36.349   -57.596
8127.49    -36.253   -58.016
8245.71    -36.167   -58.425
8365.65    -36.092   -58.867
8487.33    -36.031   -59.312
8610.78    -35.983   -59.751
8736.03    -35.947   -60.167
8863.09    -35.917   -60.573
8992.01    -35.898   -60.959
9122.80    -35.885   -61.331
9255.50    -35.880   -61.694
9390.12    -35.879   -62.030
9526.70    -35.882   -62.349
9665.27    -35.889   -62.668
9805.86    -35.900   -62.987
9948.49    -35.914   -63.327
10093.2    -35.936   -63.650
10240.0    -35.965   -63.948
10388.9    -35.994   -64.221
10540.1    -36.024   -64.499
10693.4    -36.055   -64.785
10848.9    -36.085   -65.065
11006.7    -36.129   -65.432
11166.8    -36.177   -65.690
11329.2    -36.223   -65.964
11494.0    -36.271   -66.241
11661.2    -36.324   -66.505
11830.8    -36.380   -66.773
12002.9    -36.436   -67.035
12177.5    -36.493   -67.296
12354.6    -36.554   -67.558
12534.3    -36.617   -67.821
12716.6    -36.683   -68.070
12901.6    -36.749   -68.317
13089.2    -36.818   -68.569
13279.6    -36.889   -68.813
13472.8    -36.960   -69.049
13668.8    -37.036   -69.292
13867.6    -37.112   -69.520
14069.3    -37.189   -69.757
14273.9    -37.270   -69.988
14481.5    -37.353   -70.206
14692.2    -37.436   -70.399
14905.9    -37.518   -70.592
15122.7    -37.600   -70.790
15342.7    -37.683   -70.998
15565.8    -37.767   -71.207
15792.2    -37.854   -71.412
16021.9    -37.941   -71.614
16255.0    -38.029   -71.821
16491.4    -38.119   -72.021
16731.3    -38.212   -72.222
16974.7    -38.307   -72.407
17221.6    -38.402   -72.578
17472.1    -38.495   -72.749
17726.2    -38.590   -72.917
17984.0    -38.687   -73.091
18245.6    -38.782   -73.246
18511.0    -38.878   -73.403
18780.2    -38.973   -73.560
19053.4    -39.068   -73.729
19330.5    -39.166   -73.892
19611.7    -39.263   -74.056
19897.0    -39.364   -74.217
20186.4    -39.463   -74.367
20480.0    -39.563   -74.514
20777.9    -39.663   -74.659
21080.1    -39.764   -74.801
21386.7    -39.866   -74.941
21697.8    -39.968   -75.079
22013.4    -40.071   -75.214
