Freq[Hz]     dBSPL  Phase[Deg]
5.00000    -84.470   106.711
5.07273    -84.344   106.702
5.14651    -84.219   106.693
5.22137    -84.093   106.685
5.29732    -83.967   106.676
5.37437    -83.841   106.667
5.45254    -83.715   106.658
5.53185    -83.589   106.648
5.61231    -83.463   106.639
5.69394    -83.337   106.630
5.77676    -83.211   106.620
5.86079    -83.085   106.610
5.94604    -82.959   106.600
6.03252    -82.833   106.590
6.12027    -82.707   106.580
6.20929    -82.581   106.570
6.29961    -82.455   106.560
6.39124    -82.329   106.549
6.48420    -82.203   106.538
6.57851    -82.076   106.528
6.67420    -81.950   106.517
6.77128    -81.824   106.505
6.86977    -81.698   106.494
6.96969    -81.572   106.483
7.07107    -81.446   106.471
7.17392    -81.320   106.460
7.27827    -81.194   106.448
7.38413    -81.067   106.436
7.49154    -80.941   106.423
7.60050    -80.815   106.411
7.71105    -80.689   106.399
7.82321    -80.563   106.386
7.93701    -80.436   106.373
8.05245    -80.310   106.360
8.16958    -80.184   106.347
8.28841    -80.058   106.334
8.40896    -79.931   106.320
8.53128    -79.805   106.306
8.65537    -79.679   106.293
8.78126    -79.552   106.279
8.90899    -79.426   106.264
9.03857    -79.300   106.250
9.17004    -79.173   106.235
9.30342    -79.047   106.221
9.43874    -78.920   106.206
9.57603    -78.794   106.190
9.71532    -78.667   106.175
9.85663    -78.541   106.160
10.0000    -78.414   106.144
10.1455    -78.288   106.128
10.2930    -78.161   106.112
10.4427    -78.035   106.095
10.5946    -77.908   106.079
10.7487    -77.782   106.062
10.9051    -77.655   106.045
11.0637    -77.529   106.028
11.2246    -77.402   106.011
11.3879    -77.275   105.993
11.5535    -77.149   105.975
11.7216    -77.022   105.957
11.8921    -76.895   105.939
12.0650    -76.768   105.920
12.2405    -76.641   105.901
12.4186    -76.515   105.882
12.5992    -76.388   105.863
12.7825    -76.261   105.843
12.9684    -76.134   105.824
13.1570    -76.007   105.803
13.3484    -75.880   105.783
13.5426    -75.753   105.763
13.7395    -75.626   105.742
13.9394    -75.499   105.721
14.1421    -75.372   105.700
14.3478    -75.245   105.678
14.5565    -75.118   105.656
14.7683    -74.991   105.634
14.9831    -74.864   105.611
15.2010    -74.737   105.589
15.4221    -74.609   105.566
15.6464    -74.482   105.542
15.8740    -74.355   105.519
16.1049    -74.227   105.495
16.3392    -74.100   105.470
16.5768    -73.973   105.446
16.8179    -73.845   105.421
17.0626    -73.718   105.396
17.3107    -73.590   105.370
17.5625    -73.463   105.345
17.8180    -73.335   105.318
18.0771    -73.207   105.292
18.3401    -73.080   105.265
18.6068    -72.952   105.238
18.8775    -72.824   105.210
19.1521    -72.697   105.182
19.4306    -72.569   105.154
19.7133    -72.441   105.125
20.0000    -72.313   105.096
20.2909    -72.185   105.066
20.5860    -72.057   105.036
20.8855    -71.929   105.006
21.1893    -71.801   104.975
21.4975    -71.673   104.943
21.8102    -71.545   104.911
22.1274    -71.417   104.879
22.4492    -71.288   104.846
22.7758    -71.160   104.813
23.1071    -71.032   104.779
23.4432    -70.904   104.744
23.7841    -70.775   104.710
24.1301    -70.647   104.674
24.4811    -70.519   104.639
24.8372    -70.391   104.603
25.1984    -70.263   104.566
25.5649    -70.134   104.530
25.9368    -70.006   104.493
26.3141    -69.878   104.456
26.6968    -69.750   104.420
27.0851    -69.622   104.384
27.4791    -69.494   104.348
27.8788    -69.366   104.313
28.2843    -69.238   104.278
28.6957    -69.110   104.245
29.1131    -68.982   104.213
29.5365    -68.854   104.182
29.9661    -68.725   104.151
30.4020    -68.596   104.119
30.8442    -68.467   104.088
31.2929    -68.337   104.056
31.7480    -68.208   104.023
32.2098    -68.079   103.992
32.6783    -67.949   103.959
33.1536    -67.819   103.926
33.6359    -67.690   103.893
34.1251    -67.559   103.860
34.6215    -67.429   103.827
35.1250    -67.299   103.794
35.6359    -67.168   103.761
36.1543    -67.037   103.727
36.6802    -66.906   103.692
37.2137    -66.775   103.657
37.7550    -66.644   103.622
38.3041    -66.513   103.586
38.8613    -66.381   103.549
39.4265    -66.250   103.513
40.0000    -66.118   103.475
40.5818    -65.986   103.438
41.1721    -65.854   103.400
41.7710    -65.722   103.362
42.3785    -65.590   103.324
42.9949    -65.457   103.286
43.6203    -65.325   103.248
44.2548    -65.192   103.209
44.8985    -65.059   103.171
45.5515    -64.926   103.132
46.2141    -64.793   103.094
46.8863    -64.660   103.055
47.5683    -64.526   103.016
48.2602    -64.393   102.978
48.9621    -64.259   102.939
49.6743    -64.125   102.901
50.3968    -63.991   102.862
51.1299    -63.857   102.824
51.8736    -63.722   102.787
52.6281    -63.588   102.749
53.3936    -63.453   102.712
54.1702    -63.317   102.675
54.9581    -63.182   102.638
55.7575    -63.047   102.602
56.5685    -62.911   102.566
57.3914    -62.775   102.531
58.2261    -62.639   102.496
59.0730    -62.502   102.462
59.9323    -62.366   102.429
60.8040    -62.229   102.396
61.6884    -62.091   102.364
62.5857    -61.954   102.332
63.4960    -61.816   102.302
64.4196    -61.678   102.272
65.3566    -61.539   102.243
66.3073    -61.400   102.215
67.2717    -61.261   102.189
68.2502    -61.122   102.163
69.2429    -60.982   102.138
70.2501    -60.841   102.114
71.2719    -60.701   102.091
72.3086    -60.560   102.070
73.3603    -60.418   102.049
74.4274    -60.276   102.030
75.5099    -60.134   102.012
76.6083    -59.991   101.995
77.7226    -59.848   101.980
78.8531    -59.704   101.966
80.0000    -59.559   101.952
81.1636    -59.415   101.940
82.3442    -59.269   101.930
83.5419    -59.123   101.921
84.7570    -58.977   101.914
85.9899    -58.830   101.908
87.2406    -58.683   101.904
88.5096    -58.535   101.901
89.7970    -58.386   101.901
91.1031    -58.237   101.902
92.4282    -58.087   101.905
93.7726    -57.936   101.911
95.1366    -57.785   101.918
96.5204    -57.633   101.928
97.9243    -57.481   101.940
99.3486    -57.328   101.954
100.794    -57.174   101.971
102.260    -57.019   101.990
103.747    -56.864   102.004
105.256    -56.711   102.015
106.787    -56.549   102.039
108.340    -56.386   102.065
109.916    -56.223   102.087
111.515    -56.060   102.105
113.137    -55.894   102.116
114.783    -55.729   102.122
116.452    -55.564   102.124
118.146    -55.398   102.119
119.865    -55.230   102.108
121.608    -55.063   102.091
123.377    -54.897   102.070
125.171    -54.728   102.040
126.992    -54.558   102.001
128.839    -54.389   101.957
130.713    -54.222   101.910
132.615    -54.050   101.849
134.543    -53.879   101.784
136.500    -53.710   101.713
138.486    -53.540   101.634
140.500    -53.367   101.540
142.544    -53.195   101.441
144.617    -53.025   101.336
146.721    -52.852   101.218
148.855    -52.679   101.087
151.020    -52.507   100.951
153.217    -52.337   100.811
155.445    -52.163   100.648
157.706    -51.989   100.476
160.000    -51.818   100.301
162.327    -51.648   100.118
164.688    -51.474    99.909
167.084    -51.302    99.696
169.514    -51.132    99.479
171.980    -50.961    99.245
174.481    -50.789    98.988
177.019    -50.619    98.729
179.594    -50.452    98.468
182.206    -50.282    98.177
184.856    -50.113    97.873
187.545    -49.948    97.569
190.273    -49.785    97.263
193.041    -49.617    96.913
195.849    -49.453    96.564
198.697    -49.292    96.217
201.587    -49.132    95.854
204.520    -48.970    95.455
207.494    -48.812    95.059
210.512    -48.657    94.667
213.574    -48.502    94.244
216.681    -48.348    93.802
219.833    -48.197    93.367
223.030    -48.051    92.941
226.274    -47.902    92.458
229.565    -47.757    91.980
232.905    -47.616    91.513
236.292    -47.478    91.043
239.729    -47.338    90.521
243.216    -47.203    90.015
246.754    -47.072    89.526
250.343    -46.943    89.008
253.984    -46.814    88.461
257.678    -46.691    87.936
261.426    -46.571    87.433
265.229    -46.452    86.874
269.087    -46.336    86.320
273.001    -46.225    85.793
276.972    -46.117    85.284
281.000    -46.009    84.692
285.088    -45.905    84.134
289.234    -45.806    83.609
293.441    -45.712    83.069
297.709    -45.622    82.482
302.040    -45.537    81.936
306.433    -45.455    81.430
310.890    -45.371    80.933
315.412    -45.288    80.461
320.000    -45.208    80.027
324.655    -45.131    79.631
329.377    -45.054    79.079
334.168    -44.980    78.570
339.028    -44.909    78.110
343.959    -44.842    77.659
348.962    -44.780    77.153
354.038    -44.720    76.700
359.188    -44.661    76.297
364.412    -44.606    75.856
369.713    -44.554    75.401
375.090    -44.503    75.001
380.546    -44.453    74.651
386.081    -44.409    74.224
391.697    -44.366    73.831
397.394    -44.324    73.490
403.175    -44.283    73.177
409.039    -44.250    72.793
414.989    -44.216    72.461
421.025    -44.181    72.177
427.149    -44.151    71.887
433.362    -44.127    71.576
439.665    -44.101    71.307
446.060    -44.073    71.076
452.548    -44.056    70.828
459.131    -44.039    70.590
465.809    -44.020    70.379
472.584    -43.997    70.194
479.458    -43.992    70.005
486.432    -43.983    69.827
493.507    -43.969    69.661
500.686    -43.959    69.518
507.968    -43.961    69.401
515.357    -43.958    69.279
522.853    -43.952    69.154
530.458    -43.954    69.077
538.174    -43.962    69.021
546.002    -43.968    68.951
553.943    -43.971    68.870
562.001    -43.986    68.875
570.175    -44.003    68.874
578.469    -44.020    68.856
586.883    -44.038    68.846
595.419    -44.064    68.921
604.080    -44.092    68.981
612.866    -44.123    69.025
621.780    -44.158    69.115
630.824    -44.197    69.259
640.000    -44.241    69.391
649.309    -44.291    69.511
658.753    -44.342    69.716
668.335    -44.398    69.943
678.056    -44.462    70.165
687.919    -44.532    70.394
697.925    -44.604    70.738
708.077    -44.685    71.089
718.376    -44.775    71.449
728.825    -44.870    71.857
739.426    -44.967    72.347
750.181    -45.074    72.861
761.093    -45.192    73.402
772.163    -45.314    74.041
783.394    -45.446    74.755
794.789    -45.589    75.520
806.349    -45.746    76.343
818.078    -45.904    77.313
829.977    -46.076    78.368
842.050    -46.261    79.519
854.298    -46.458    80.797
866.724    -46.660    82.252
879.330    -46.875    83.858
892.120    -47.104    85.639
905.097    -47.339    87.655
918.262    -47.581    89.933
931.618    -47.830    92.477
945.169    -48.083    95.324
958.917    -48.324    98.515
972.864    -48.553   102.085
987.015    -48.763   106.064
1001.37    -48.941   110.476
1015.94    -49.070   115.340
1030.71    -49.135   120.604
1045.71    -49.121   126.203
1060.92    -49.012   132.048
1076.35    -48.798   138.005
1092.00    -48.479   143.910
1107.89    -48.062   149.618
1124.00    -47.552   155.039
1140.35    -46.967   160.067
1156.94    -46.327   164.639
1173.77    -45.648   168.742
1190.84    -44.936   172.420
1208.16    -44.209   175.663
1225.73    -43.477   178.507
1243.56    -42.744  -179.004
1261.65    -42.013  -176.820
1280.00    -41.291  -174.926
1298.62    -40.580  -173.289
1317.51    -39.877  -171.859
1336.67    -39.183  -170.619
1356.11    -38.503  -169.561
1375.84    -37.835  -168.665
1395.85    -37.174  -167.898
1416.15    -36.524  -167.262
1436.75    -35.886  -166.746
1457.65    -35.258  -166.337
1478.85    -34.638  -166.015
1500.36    -34.029  -165.787
1522.19    -33.429  -165.647
1544.33    -32.835  -165.581
1566.79    -32.247  -165.585
1589.58    -31.667  -165.663
1612.70    -31.096  -165.812
1636.16    -30.527  -166.019
1659.95    -29.965  -166.289
1684.10    -29.409  -166.624
1708.60    -28.860  -167.021
1733.45    -28.312  -167.477
1758.66    -27.771  -167.994
1784.24    -27.235  -168.572
1810.19    -26.704  -169.210
1836.52    -26.174  -169.908
1863.24    -25.651  -170.666
1890.34    -25.133  -171.485
1917.83    -24.618  -172.367
1945.73    -24.108  -173.312
1974.03    -23.604  -174.319
2002.74    -23.105  -175.388
2031.87    -22.610  -176.524
2061.43    -22.120  -177.724
2091.41    -21.638  -178.987
2121.83    -21.162   179.684
2152.69    -20.690   178.283
2184.01    -20.227   176.819
2215.77    -19.772   175.292
2248.00    -19.324   173.694
2280.70    -18.884   172.028
2313.87    -18.455   170.303
2347.53    -18.036   168.521
2381.68    -17.626   166.671
2416.32    -17.228   164.768
2451.46    -16.842   162.816
2487.12    -16.468   160.818
2523.30    -16.107   158.767
2560.00    -15.758   156.680
2597.24    -15.423   154.561
2635.01    -15.102   152.411
2673.34    -14.794   150.234
2712.23    -14.501   148.040
2751.68    -14.221   145.832
2791.70    -13.955   143.617
2832.31    -13.704   141.401
2873.50    -13.466   139.186
2915.30    -13.242   136.978
2957.70    -13.030   134.789
3000.72    -12.832   132.616
3044.37    -12.646   130.465
3088.65    -12.472   128.338
3133.58    -12.310   126.240
3179.16    -12.160   124.174
3225.40    -12.019   122.141
3272.31    -11.888   120.161
3319.91    -11.766   118.228
3368.20    -11.653   116.338
3417.19    -11.547   114.490
3466.89    -11.447   112.696
3517.32    -11.354   110.946
3568.48    -11.266   109.241
3620.39    -11.184   107.582
3673.05    -11.106   105.973
3726.47    -11.032   104.408
3780.67    -10.962   102.884
3835.67    -10.894   101.404
3891.46    -10.829    99.966
3948.06    -10.766    98.567
4005.49    -10.706    97.206
4063.75    -10.647    95.871
4122.86    -10.590    94.570
4182.82    -10.535    93.302
4243.66    -10.481    92.067
4305.39    -10.429    90.867
4368.01    -10.379    89.697
4431.55    -10.331    88.556
4496.01    -10.282    87.446
4561.40    -10.233    86.368
4627.75    -10.186    85.316
4695.06    -10.139    84.289
4763.35    -10.090    83.283
4832.64    -10.042    82.299
4902.93     -9.994    81.336
4974.24     -9.946    80.394
5046.60     -9.899    79.466
5120.00     -9.852    78.557
5194.47     -9.805    77.667
5270.03     -9.758    76.796
5346.68     -9.709    75.949
5424.45     -9.661    75.117
5503.35     -9.614    74.301
5583.40     -9.559    73.494
5664.61     -9.498    72.697
5747.01     -9.438    71.911
5830.60     -9.378    71.138
5915.41     -9.332    70.210
6001.45     -9.288    69.270
6088.74     -9.246    68.343
6177.30     -9.206    67.455
6267.15     -9.175    66.719
6358.31     -9.145    65.996
6450.80     -9.116    65.286
6544.62     -9.083    64.586
6639.82     -9.045    63.897
6736.40     -9.008    63.219
6834.38     -8.971    62.551
6933.79     -8.934    61.895
7034.64     -8.897    61.249
7136.96     -8.860    60.613
7240.77     -8.824    59.987
7346.09     -8.785    59.361
7452.94     -8.748    58.745
7561.35     -8.711    58.138
7671.33     -8.673    57.537
7782.91     -8.636    56.939
7896.12     -8.599    56.350
8010.97     -8.563    55.770
8127.49     -8.526    55.192
8245.71     -8.490    54.620
8365.65     -8.454    54.055
8487.33     -8.419    53.498
8610.78     -8.384    52.941
8736.03     -8.349    52.391
8863.09     -8.315    51.848
8992.01     -8.282    51.311
9122.80     -8.248    50.772
9255.50     -8.216    50.241
9390.12     -8.183    49.717
9526.70     -8.153    49.194
9665.27     -8.123    48.673
9805.86     -8.094    48.160
9948.49     -8.066    47.654
10093.2     -8.040    47.159
10240.0     -8.014    46.673
10388.9     -7.989    46.194
10540.1     -7.965    45.724
10693.4     -7.942    45.273
10848.9     -7.919    44.829
11006.7     -7.896    44.392
11166.8     -7.873    43.965
11329.2     -7.851    43.550
11494.0     -7.828    43.142
11661.2     -7.806    42.740
11830.8     -7.783    42.347
12002.9     -7.761    41.962
12177.5     -7.739    41.583
12354.6     -7.718    41.210
12534.3     -7.695    40.846
12716.6     -7.673    40.488
12901.6     -7.652    40.137
13089.2     -7.630    39.791
13279.6     -7.608    39.451
13472.8     -7.586    39.116
13668.8     -7.565    38.788
13867.6     -7.544    38.466
14069.3     -7.523    38.150
14273.9     -7.502    37.840
14481.5     -7.481    37.536
14692.2     -7.459    37.242
14905.9     -7.438    36.954
15122.7     -7.416    36.672
15342.7     -7.395    36.389
15565.8     -7.372    36.080
15792.2     -7.350    35.777
16021.9     -7.328    35.479
16255.0     -7.309    35.201
16491.4     -7.292    34.947
16731.3     -7.275    34.698
16974.7     -7.258    34.454
17221.6     -7.239    34.217
17472.1     -7.220    33.986
17726.2     -7.202    33.759
17984.0     -7.183    33.537
18245.6     -7.164    33.319
18511.0     -7.145    33.106
18780.2     -7.126    32.897
19053.4     -7.108    32.693
19330.5     -7.090    32.494
19611.7     -7.073    32.299
19897.0     -7.055    32.108
20186.4     -7.038    31.922
20480.0     -7.021    31.739
20777.9     -7.004    31.562
21080.1     -6.987    31.388
21386.7     -6.970    31.218
21697.8     -6.954    31.052
22013.4     -6.937    30.891
