Freq[Hz]     dBSPL  Phase[Deg]
5.00000     -4.283    14.629
5.07273     -3.659    22.755
5.14651     -3.035    31.017
5.22137     -2.411    39.416
5.29732     -1.787    47.955
5.37437     -1.162    56.635
5.45254     -0.536    65.457
5.53185      0.089    74.425
5.61231      0.715    83.539
5.69394      1.341    92.801
5.77676      1.968   102.214
5.86079      2.596   111.779
5.94604      3.224   121.498
6.03252      3.852   131.374
6.12027      4.482   141.408
6.20929      5.112   151.602
6.29961      5.743   161.958
6.39124      6.375   172.478
6.48420      7.008  -176.836
6.57851      7.642  -165.981
6.67420      8.276  -154.956
6.77128      8.913  -143.759
6.86977      9.550  -132.388
6.96969     10.188  -120.840
7.07107     10.828  -109.114
7.17392     11.470   -97.208
7.27827     12.113   -85.119
7.38413     12.757   -72.846
7.49154     13.403   -60.386
7.60050     14.051   -47.737
7.71105     14.701   -34.898
7.82321     15.352   -21.866
7.93701     16.005    -8.639
8.05245     16.660     4.785
8.16958     17.317    18.407
8.28841     17.976    32.231
8.40896     18.637    46.258
8.53128     19.300    60.490
8.65537     19.966    74.929
8.78126     20.633    89.578
8.90899     21.302   104.439
9.03857     21.973   119.514
9.17004     22.647   134.805
9.30342     23.322   150.314
9.43874     23.999   166.045
9.57603     24.679  -178.001
9.71532     25.360  -161.821
9.85663     26.043  -145.413
10.0000     26.727  -128.773
10.1455     27.151   112.579
10.2930     27.579   112.148
10.4427     28.026   179.902
10.5946     28.534  -162.242
10.7487     29.118  -124.710
10.9051     29.776  -107.665
11.0637     30.487   -83.373
11.2246     31.236   -67.425
11.3879     32.015   -50.666
11.5535     32.817   -35.722
11.7216     33.633   -23.911
11.8921     34.456    -9.889
12.0650     35.281    -1.555
12.2405     36.105    11.687
12.4186     36.924    17.443
12.5992     37.736    30.025
12.7825     38.539    33.812
12.9684     39.335    45.867
13.1570     40.123    48.102
13.3484     40.901    59.320
13.5426     41.673    61.503
13.7395     42.429    70.641
13.9394     43.180    73.448
14.1421     43.924    80.823
14.3478     44.660    84.104
14.5565     45.389    89.992
14.7683     46.109    93.640
14.9831     46.821    98.277
15.2010     47.529   102.249
15.4221     48.231   105.825
15.6464     48.927   110.040
15.8740     49.617   112.672
16.1049     50.302   117.089
16.3392     50.983   118.913
16.5768     51.659   123.512
16.8179     52.333   124.626
17.0626     53.004   129.334
17.3107     53.668   129.777
17.5625     54.330   134.498
17.8180     54.991   134.851
18.0771     55.651   138.830
18.3401     56.308   139.501
18.6068     56.963   142.727
18.8775     57.615   143.682
19.1521     58.265   146.216
19.4306     58.914   147.433
19.7133     59.565   149.341
20.0000     60.215   150.737
20.2909     60.864   152.040
20.5860     61.514   153.624
20.8855     62.165   154.367
21.1893     62.815   156.060
21.4975     63.464   156.246
21.8102     64.113   158.040
22.1274     64.766   157.743
22.4492     65.418   159.578
22.7758     66.070   158.755
23.1071     66.723   160.547
23.4432     67.374   159.457
23.7841     68.024   160.753
24.1301     68.672   159.713
24.4811     69.318   160.376
24.8372     69.961   159.378
25.1984     70.599   159.411
25.5649     71.233   158.364
25.9368     71.852   157.770
26.3141     72.461   156.701
26.6968     73.058   155.488
27.0851     73.640   154.224
27.4791     74.200   152.415
27.8788     74.731   151.230
28.2843     75.236   148.998
28.6957     75.709   147.750
29.1131     76.157   144.983
29.5365     76.556   143.813
29.9661     76.933   141.008
30.4020     77.310   140.124
30.8442     77.650   137.347
31.2929     77.992   136.470
31.7480     78.318   133.778
32.2098     78.603   132.476
32.6783     78.897   130.056
33.1536     79.188   128.495
33.6359     79.445   126.258
34.1251     79.671   124.669
34.6215     79.888   122.858
35.1250     80.089   121.094
35.6359     80.257   119.450
36.1543     80.425   117.753
36.6802     80.599   116.583
37.2137     80.762   114.810
37.7550     80.920   113.966
38.3041     81.085   112.153
38.8613     81.246   111.342
39.4265     81.402   109.374
40.0000     81.563   109.013
40.5818     81.715   107.036
41.1721     81.865   106.606
41.7710     82.021   104.942
42.3785     82.170   104.394
42.9949     82.316   102.922
43.6203     82.468   102.219
44.2548     82.623   100.926
44.8985     82.777   100.076
45.5515     82.932    98.995
46.2141     83.090    98.043
46.8863     83.248    97.115
47.5683     83.406    96.002
48.2602     83.568    95.243
48.9621     83.736    94.013
49.6743     83.905    93.347
50.3968     84.078    91.902
51.1299     84.251    91.244
51.8736     84.410    89.566
52.6281     84.564    89.088
53.3936     84.730    87.457
54.1702     84.902    86.934
54.9581     85.076    85.317
55.7575     85.250    84.577
56.5685     85.426    83.020
57.3914     85.603    82.022
58.2261     85.774    80.477
59.0730     85.937    79.248
59.9323     86.092    77.766
60.8040     86.250    76.408
61.6884     86.410    74.995
62.5857     86.560    73.415
63.4960     86.703    72.034
64.4196     86.841    70.318
65.3566     86.977    69.020
66.3073     87.108    67.109
67.2717     87.229    65.826
68.2502     87.343    63.771
69.2429     87.448    62.561
70.2501     87.544    60.392
71.2719     87.632    59.158
72.3086     87.712    57.063
73.3603     87.784    55.726
74.4274     87.851    53.781
75.5099     87.913    52.379
76.6083     87.963    50.528
77.7226     87.990    48.988
78.8531     88.003    47.420
80.0000     88.041    46.144
81.1636     88.101    44.733
82.3442     88.152    43.144
83.5419     88.195    41.722
84.7570     88.228    40.092
85.9899     88.251    38.829
87.2406     88.272    37.232
88.5096     88.310    36.190
89.7970     88.361    34.455
91.1031     88.397    33.351
92.4282     88.427    31.559
93.7726     88.458    30.540
95.1366     88.491    28.810
96.5204     88.525    27.658
97.9243     88.555    25.932
99.3486     88.569    24.691
100.794     88.571    23.149
102.260     88.564    22.045
103.747     88.590    21.057
105.256     88.699    20.072
106.787     88.820    18.507
108.340     88.885    16.652
109.916     88.924    14.962
111.515     88.948    13.072
113.137     88.952    11.481
114.783     88.943     9.695
116.452     88.936     8.416
118.146     88.940     6.720
119.865     88.951     5.502
121.608     88.961     3.700
123.377     88.971     2.498
125.171     88.969     0.709
126.992     88.958    -0.378
128.839     89.007    -1.760
130.713     89.094    -3.259
132.615     89.123    -5.396
134.543     89.106    -7.144
136.500     89.086    -8.891
138.486     89.065   -10.488
140.500     89.041   -12.080
142.544     89.020   -13.563
144.617     89.024   -14.916
146.721     89.047   -16.575
148.855     89.044   -18.207
151.020     89.017   -19.926
153.217     89.017   -21.163
155.445     89.052   -22.921
157.706     89.070   -24.533
160.000     89.059   -26.532
162.327     89.046   -27.987
164.688     89.037   -29.901
167.084     89.020   -31.449
169.514     88.994   -33.242
171.980     88.978   -34.666
174.481     88.975   -36.302
177.019     88.987   -37.759
179.594     89.007   -39.443
182.206     89.024   -41.096
184.856     89.044   -42.756
187.545     89.088   -44.460
190.273     89.130   -46.298
193.041     89.156   -48.219
195.849     89.208   -49.957
198.697     89.282   -52.053
201.587     89.355   -54.245
204.520     89.388   -56.926
207.494     89.383   -59.291
210.512     89.364   -61.893
213.574     89.325   -64.117
216.681     89.279   -66.500
219.833     89.245   -68.555
223.030     89.201   -70.842
226.274     89.173   -72.748
229.565     89.169   -74.947
232.905     89.158   -77.054
236.292     89.151   -79.225
239.729     89.165   -81.350
243.216     89.194   -83.689
246.754     89.205   -86.189
250.343     89.204   -88.621
253.984     89.209   -91.187
257.678     89.192   -93.732
261.426     89.171   -96.208
265.229     89.179   -98.613
269.087     89.175  -101.333
273.001     89.158  -103.798
276.972     89.153  -106.424
281.000     89.161  -108.864
285.088     89.177  -111.658
289.234     89.184  -114.341
293.441     89.184  -117.195
297.709     89.186  -119.915
302.040     89.190  -122.755
306.433     89.207  -125.578
310.890     89.213  -128.601
315.412     89.208  -131.534
320.000     89.209  -134.471
324.655     89.215  -137.447
329.377     89.223  -140.431
334.168     89.236  -143.525
339.028     89.247  -146.582
343.959     89.265  -149.748
348.962     89.284  -152.952
354.038     89.297  -156.291
359.188     89.305  -159.596
364.412     89.301  -163.119
369.713     89.274  -166.420
375.090     89.258  -169.773
380.546     89.243  -173.041
386.081     89.225  -176.401
391.697     89.210  -179.685
397.394     89.196   176.969
403.175     89.180   173.653
409.039     89.159   170.304
414.989     89.147   167.031
421.025     89.132   163.710
427.149     89.118   160.400
433.362     89.105   157.078
439.665     89.086   153.778
446.060     89.073   150.505
452.548     89.066   147.282
459.131     89.060   143.987
465.809     89.056   140.756
472.584     89.063   137.470
479.458     89.059   134.152
486.432     89.064   130.921
493.507     89.080   127.582
500.686     89.094   124.185
507.968     89.098   120.441
515.357     89.021   116.853
522.853     88.949   113.651
530.458     88.888   110.511
538.174     88.836   107.515
546.002     88.795   104.556
553.943     88.761   101.645
562.001     88.735    98.815
570.175     88.716    96.014
578.469     88.716    93.345
586.883     88.749    90.599
595.419     88.809    87.739
604.080     88.870    84.559
612.866     88.909    81.317
621.780     88.939    77.977
630.824     88.971    74.656
640.000     89.010    71.052
649.309     89.042    66.895
658.753     88.879    62.407
668.335     88.641    58.949
678.056     88.409    55.814
687.919     88.179    53.175
697.925     87.969    50.753
708.077     87.753    48.632
718.376     87.543    47.083
728.825     87.449    45.944
739.426     87.439    44.548
750.181     87.451    42.829
761.093     87.466    41.004
772.163     87.484    39.057
783.394     87.499    37.142
794.789     87.532    35.186
806.349     87.593    33.331
818.078     87.670    31.092
829.977     87.742    28.973
842.050     87.822    26.438
854.298     87.889    24.099
866.724     87.962    21.272
879.330     87.991    18.582
892.120     88.015    15.802
905.097     88.021    13.144
918.262     88.023    10.352
931.618     88.014     7.742
945.169     88.002     5.071
958.917     87.989     2.504
972.864     87.967    -0.143
987.015     87.950    -2.723
1001.37     87.933    -5.352
1015.94     87.903    -8.083
1030.71     87.848   -10.716
1045.71     87.783   -13.243
1060.92     87.729   -15.561
1076.35     87.684   -18.064
1092.00     87.649   -20.218
1107.89     87.625   -22.648
1124.00     87.603   -24.874
1140.35     87.592   -27.506
1156.94     87.580   -29.753
1173.77     87.558   -32.466
1190.84     87.552   -34.908
1208.16     87.523   -37.696
1225.73     87.485   -40.291
1243.56     87.426   -42.983
1261.65     87.373   -45.488
1280.00     87.308   -48.023
1298.62     87.258   -50.529
1317.51     87.206   -52.998
1336.67     87.154   -55.573
1356.11     87.088   -57.974
1375.84     87.034   -60.472
1395.85     86.986   -62.682
1416.15     86.944   -65.273
1436.75     86.896   -67.516
1457.65     86.842   -70.040
1478.85     86.791   -72.013
1500.36     86.766   -74.252
1522.19     86.814   -75.819
1544.33     86.919   -78.308
1566.79     87.021   -80.648
1589.58     87.138   -83.510
1612.70     87.260   -86.319
1636.16     87.382   -89.594
1659.95     87.501   -92.836
1684.10     87.616   -96.406
1708.60     87.741  -100.052
1733.45     87.872  -103.960
1758.66     88.013  -108.324
1784.24     88.140  -113.130
1810.19     88.186  -118.733
1836.52     88.104  -124.251
1863.24     87.907  -129.785
1890.34     87.688  -134.291
1917.83     87.462  -139.125
1945.73     87.242  -143.109
1974.03     87.019  -147.742
2002.74     86.800  -151.476
2031.87     86.578  -155.906
2061.43     86.363  -159.606
2091.41     86.142  -163.864
2121.83     85.924  -167.573
2152.69     85.697  -171.653
2184.01     85.475  -175.314
2215.77     85.250  -179.150
2248.00     85.026   177.220
2280.70     84.799   173.642
2313.87     84.561   170.108
2347.53     84.309   167.047
2381.68     84.039   164.196
2416.32     83.849   162.740
2451.46     83.842   161.126
2487.12     84.039   159.714
2523.30     84.280   156.553
2560.00     84.585   153.941
2597.24     84.883   149.652
2635.01     85.267   146.199
2673.34     85.659   140.868
2712.23     86.097   135.528
2751.68     86.365   128.253
2791.70     86.508   121.905
2832.31     86.572   115.197
2873.50     86.634   109.249
2915.30     86.677   102.971
2957.70     86.720    96.936
3000.72     86.739    90.719
3044.37     86.706    84.408
3088.65     86.635    78.625
3133.58     86.542    72.664
3179.16     86.461    67.588
3225.40     86.358    61.795
3272.31     86.271    57.325
3319.91     86.158    51.797
3368.20     86.097    48.145
3417.19     86.034    42.781
3466.89     86.024    39.468
3517.32     85.991    34.343
3568.48     85.996    31.114
3620.39     86.012    26.592
3673.05     86.102    23.403
3726.47     86.209    18.973
3780.67     86.340    15.289
3835.67     86.476    10.906
3891.46     86.639     6.844
3948.06     86.814     2.393
4005.49     86.980    -2.360
4063.75     87.129    -6.928
4122.86     87.261   -12.166
4182.82     87.383   -16.694
4243.66     87.461   -22.480
4305.39     87.499   -26.795
4368.01     87.510   -32.606
4431.55     87.533   -36.356
4496.01     87.541   -42.479
4561.40     87.521   -46.175
4627.75     87.449   -52.181
4695.06     87.368   -55.680
4763.35     87.279   -61.026
4832.64     87.194   -64.471
4902.93     87.111   -69.275
4974.24     87.037   -72.838
5046.60     86.963   -77.322
5120.00     86.875   -81.247
5194.47     86.755   -85.419
5270.03     86.608   -89.392
5346.68     86.454   -92.734
5424.45     86.310   -96.465
5503.35     86.190   -98.983
5583.40     86.099  -102.784
5664.61     86.022  -104.717
5747.01     85.983  -108.462
5830.60     86.022  -109.750
5915.41     86.092  -114.443
6001.45     86.154  -116.322
6088.74     86.198  -121.614
6177.30     86.220  -123.946
6267.15     86.225  -128.917
6358.31     86.185  -131.690
6450.80     86.086  -136.215
6544.62     85.974  -138.569
6639.82     85.929  -141.654
6736.40     85.985  -143.821
6834.38     86.107  -146.838
6933.79     86.248  -150.147
7034.64     86.396  -153.401
7136.96     86.548  -157.726
7240.77     86.682  -161.196
7346.09     86.778  -166.563
7452.94     86.833  -169.867
7561.35     86.856  -175.843
7671.33     86.826  -178.657
7782.91     86.771   175.189
7896.12     86.709   173.351
8010.97     86.645   167.533
8127.49     86.617   166.210
8245.71     86.693   161.366
8365.65     86.839   159.344
8487.33     87.019   154.201
8610.78     87.224   150.833
8736.03     87.401   145.061
8863.09     87.501   140.314
8992.01     87.541   134.866
9122.80     87.546   129.874
9255.50     87.549   125.600
9390.12     87.636   120.788
9526.70     87.848   116.984
9665.27     88.069   110.012
9805.86     88.190   105.130
9948.49     88.209    96.744
10093.2     88.143    92.633
10240.0     88.033    84.245
10388.9     87.993    81.781
10540.1     87.991    72.865
10693.4     87.946    69.500
10848.9     87.850    60.916
11006.7     87.724    57.340
11166.8     87.649    50.136
11329.2     87.684    46.112
11494.0     87.724    38.493
11661.2     87.683    32.543
11830.8     87.562    25.358
12002.9     87.425    19.184
12177.5     87.350    13.374
12354.6     87.313     6.002
12534.3     87.214     0.175
12716.6     87.043    -8.359
12901.6     86.884   -12.554
13089.2     86.801   -21.730
13279.6     86.746   -25.508
13472.8     86.565   -36.939
13668.8     86.320   -39.071
13867.6     86.149   -50.135
14069.3     86.089   -51.783
14273.9     86.055   -62.794
14481.5     86.045   -65.776
14692.2     86.117   -76.313
14905.9     86.208   -81.416
15122.7     86.254   -92.227
15342.7     86.278   -99.159
15565.8     86.344  -109.286
15792.2     86.432  -119.129
16021.9     86.265  -130.309
16255.0     85.768  -141.581
16491.4     85.402  -146.790
16731.3     85.505  -157.172
16974.7     85.849  -162.488
17221.6     86.130   179.720
17472.1     86.136   173.735
17726.2     86.070   152.115
17984.0     86.040   149.947
18245.6     85.958   123.655
18511.0     86.153   124.050
18780.2     86.680    93.590
19053.4     87.147    87.634
19330.5     87.730    47.784
19611.7     88.569    33.415
19897.0     89.421   -53.784
20186.4     89.389   -63.567
20480.0     89.358   -73.412
20777.9     89.326   -83.319
21080.1     89.295   -93.288
21386.7     89.264  -103.321
21697.8     89.232  -113.418
22013.4     89.201  -123.581
