Freq[Hz]  Imp[Ohm]  Phase[Deg]
5.00000      6.104    11.176
5.07273      6.112    11.211
5.14651      6.120    11.247
5.22137      6.129    11.284
5.29732      6.137    11.322
5.37437      6.146    11.362
5.45254      6.155    11.404
5.53185      6.165    11.446
5.61231      6.175    11.490
5.69394      6.185    11.536
5.77676      6.195    11.583
5.86079      6.206    11.631
5.94604      6.217    11.682
6.03252      6.228    11.733
6.12027      6.240    11.787
6.20929      6.252    11.842
6.29961      6.264    11.899
6.39124      6.277    11.958
6.48420      6.290    12.019
6.57851      6.303    12.081
6.67420      6.317    12.146
6.77128      6.332    12.212
6.86977      6.346    12.281
6.96969      6.362    12.351
7.07107      6.377    12.424
7.17392      6.393    12.499
7.27827      6.410    12.576
7.38413      6.427    12.656
7.49154      6.445    12.738
7.60050      6.463    12.822
7.71105      6.482    12.909
7.82321      6.502    12.999
7.93701      6.522    13.091
8.05245      6.543    13.185
8.16958      6.564    13.283
8.28841      6.586    13.383
8.40896      6.609    13.486
8.53128      6.633    13.592
8.65537      6.657    13.701
8.78126      6.683    13.813
8.90899      6.709    13.928
9.03857      6.736    14.046
9.17004      6.764    14.167
9.30342      6.792    14.292
9.43874      6.822    14.420
9.57603      6.853    14.552
9.71532      6.885    14.687
9.85663      6.918    14.825
10.0000      6.952    14.967
10.1455      6.988    15.113
10.2930      7.022    15.264
10.4427      7.060    15.410
10.5946      7.098    15.553
10.7487      7.139    15.705
10.9051      7.182    15.867
11.0637      7.226    16.031
11.2246      7.271    16.198
11.3879      7.315    16.359
11.5535      7.361    16.509
11.7216      7.412    16.647
11.8921      7.469    16.783
12.0650      7.528    16.928
12.2405      7.586    17.063
12.4186      7.644    17.234
12.5992      7.710    17.446
12.7825      7.786    17.576
12.9684      7.851    17.599
13.1570      7.906    17.676
13.3484      7.984    17.835
13.5426      8.075    18.003
13.7395      8.157    18.131
13.9394      8.238    18.199
14.1421      8.332    18.280
14.3478      8.435    18.348
14.5565      8.545    18.374
14.7683      8.654    18.411
14.9831      8.763    18.444
15.2010      8.888    18.434
15.4221      9.029    18.410
15.6464      9.168    18.396
15.8740      9.312    18.364
16.1049      9.469    18.222
16.3392      9.639    18.035
16.5768      9.829    17.887
16.8179     10.025    17.689
17.0626     10.226    17.380
17.3107     10.446    17.023
17.5625     10.685    16.645
17.8180     10.941    16.179
18.0771     11.208    15.592
18.3401     11.510    14.891
18.6068     11.841    14.038
18.8775     12.182    13.000
19.1521     12.529    11.859
19.4306     12.916    10.605
19.7133     13.347     9.070
20.0000     13.758     7.151
20.2909     14.184     4.908
20.5860     14.630     2.399
20.8855     15.058    -0.524
21.1893     15.427    -3.796
21.4975     15.703    -7.459
21.8102     15.887   -11.668
22.1274     15.900   -16.183
22.4492     15.697   -20.730
22.7758     15.328   -25.236
23.1071     14.755   -29.750
23.4432     14.063   -33.961
23.7841     13.266   -37.575
24.1301     12.391   -40.619
24.4811     11.527   -43.103
24.8372     10.696   -45.043
25.1984      9.886   -46.480
25.5649      9.106   -47.285
25.9368      8.427   -47.396
26.3141      7.832   -47.118
26.6968      7.276   -46.261
27.0851      6.757   -44.826
27.4791      6.327   -43.204
27.8788      6.000   -41.380
28.2843      5.721   -39.233
28.6957      5.480   -36.618
29.1131      5.261   -33.765
29.5365      5.123   -30.803
29.9661      5.041   -28.133
30.4020      4.954   -25.884
30.8442      4.936   -23.635
31.2929      4.924   -21.912
31.7480      4.869   -20.066
32.2098      4.840   -17.778
32.6783      4.811   -16.084
33.1536      4.761   -14.568
33.6359      4.740   -12.827
34.1251      4.761   -11.067
34.6215      4.788    -9.511
35.1250      4.803    -7.839
35.6359      4.832    -5.870
36.1543      4.899    -4.297
36.6802      4.969    -3.079
37.2137      5.039    -1.912
37.7550      5.124    -0.857
38.3041      5.201    -0.032
38.8613      5.243     0.841
39.4265      5.312     1.562
40.0000      5.403     2.002
40.5818      5.470     2.546
41.1721      5.549     2.995
41.7710      5.634     3.271
42.3785      5.718     3.562
42.9949      5.797     3.836
43.6203      5.870     3.957
44.2548      5.936     3.994
44.8985      5.999     4.005
45.5515      6.068     3.933
46.2141      6.134     3.792
46.8863      6.192     3.604
47.5683      6.244     3.392
48.2602      6.297     3.081
48.9621      6.342     2.680
49.6743      6.374     2.260
50.3968      6.388     1.792
51.1299      6.378     1.401
51.8736      6.366     1.202
52.6281      6.377     0.992
53.3936      6.388     0.584
54.1702      6.379     0.120
54.9581      6.356    -0.321
55.7575      6.325    -0.730
56.5685      6.282    -1.118
57.3914      6.223    -1.453
58.2261      6.158    -1.668
59.0730      6.090    -1.717
59.9323      6.027    -1.660
60.8040      5.965    -1.642
61.6884      5.896    -1.585
62.5857      5.827    -1.388
63.4960      5.760    -1.096
64.4196      5.700    -0.758
65.3566      5.640    -0.381
66.3073      5.578     0.080
67.2717      5.520     0.641
68.2502      5.468     1.268
69.2429      5.422     1.958
70.2501      5.380     2.724
71.2719      5.343     3.536
72.3086      5.314     4.386
73.3603      5.292     5.264
74.4274      5.277     6.127
75.5099      5.267     6.991
76.6083      5.262     7.930
77.7226      5.267     9.008
78.8531      5.299    10.018
80.0000      5.337    10.691
81.1636      5.355    11.267
82.3442      5.367    11.957
83.5419      5.384    12.677
84.7570      5.410    13.410
85.9899      5.443    14.157
87.2406      5.487    14.838
88.5096      5.528    15.358
89.7970      5.555    15.850
91.1031      5.586    16.423
92.4282      5.624    16.992
93.7726      5.663    17.530
95.1366      5.703    18.038
96.5204      5.739    18.546
97.9243      5.774    19.090
99.3486      5.820    19.673
100.794      5.878    20.272
102.260      5.954    20.800
103.747      6.044    20.934
105.256      6.090    20.676
106.787      6.084    20.683
108.340      6.083    21.146
109.916      6.099    21.696
111.515      6.123    22.316
113.137      6.162    22.984
114.783      6.217    23.609
116.452      6.284    24.135
118.146      6.349    24.567
119.865      6.411    24.970
121.608      6.475    25.366
123.377      6.539    25.740
125.171      6.611    26.157
126.992      6.703    26.465
128.839      6.779    26.421
130.713      6.803    26.507
132.615      6.831    27.025
134.543      6.898    27.604
136.500      6.980    28.066
138.486      7.069    28.473
140.500      7.166    28.838
142.544      7.273    29.082
144.617      7.373    29.169
146.721      7.454    29.280
148.855      7.540    29.556
151.020      7.654    29.782
153.217      7.767    29.764
155.445      7.851    29.723
157.706      7.931    29.867
160.000      8.034    30.040
162.327      8.147    30.129
164.688      8.259    30.177
167.084      8.377    30.238
169.514      8.511    30.218
171.980      8.645    30.074
174.481      8.775    29.842
177.019      8.895    29.534
179.594      9.006    29.227
182.206      9.115    28.929
184.856      9.224    28.559
187.545      9.312    28.131
190.273      9.392    27.810
193.041      9.485    27.472
195.849      9.555    27.009
198.697      9.594    26.646
201.587      9.626    26.518
204.520      9.684    26.593
207.494      9.780    26.656
210.512      9.892    26.632
213.574     10.026    26.543
216.681     10.170    26.267
219.833     10.303    25.909
223.030     10.444    25.473
226.274     10.568    24.853
229.565     10.664    24.270
232.905     10.760    23.685
236.292     10.844    23.031
239.729     10.900    22.394
243.216     10.943    21.884
246.754     11.005    21.440
250.343     11.070    20.897
253.984     11.121    20.386
257.678     11.185    19.864
261.426     11.230    19.208
265.229     11.250    18.678
269.087     11.292    18.187
273.001     11.329    17.558
276.972     11.335    16.908
281.000     11.320    16.348
285.088     11.304    15.893
289.234     11.291    15.466
293.441     11.272    15.055
297.709     11.250    14.700
302.040     11.227    14.383
306.433     11.205    14.115
310.890     11.191    13.866
315.412     11.172    13.586
320.000     11.143    13.365
324.655     11.119    13.211
329.377     11.098    13.072
334.168     11.080    12.987
339.028     11.066    12.898
343.959     11.049    12.848
348.962     11.043    12.874
354.038     11.045    12.886
359.188     11.058    12.909
364.412     11.075    12.922
369.713     11.095    12.910
375.090     11.115    12.919
380.546     11.144    12.939
386.081     11.181    12.937
391.697     11.221    12.903
397.394     11.255    12.861
403.175     11.295    12.853
409.039     11.346    12.835
414.989     11.396    12.814
421.025     11.458    12.763
427.149     11.523    12.680
433.362     11.595    12.589
439.665     11.670    12.435
446.060     11.749    12.279
452.548     11.825    12.070
459.131     11.915    11.808
465.809     11.989    11.495
472.584     12.073    11.175
479.458     12.150    10.752
486.432     12.214    10.318
493.507     12.274     9.854
500.686     12.317     9.354
507.968     12.370     8.911
515.357     12.410     8.358
522.853     12.432     7.847
530.458     12.458     7.310
538.174     12.467     6.778
546.002     12.470     6.263
553.943     12.471     5.746
562.001     12.457     5.237
570.175     12.438     4.719
578.469     12.404     4.254
586.883     12.374     3.789
595.419     12.330     3.383
604.080     12.293     2.986
612.866     12.246     2.607
621.780     12.197     2.242
630.824     12.138     1.962
640.000     12.093     1.656
649.309     12.039     1.395
658.753     11.981     1.162
668.335     11.926     0.992
678.056     11.878     0.786
687.919     11.825     0.615
697.925     11.779     0.490
708.077     11.734     0.356
718.376     11.683     0.254
728.825     11.645     0.160
739.426     11.603     0.084
750.181     11.563     0.026
761.093     11.527    -0.010
772.163     11.496    -0.039
783.394     11.462    -0.077
794.789     11.439    -0.088
806.349     11.419    -0.116
818.078     11.397    -0.154
829.977     11.375    -0.142
842.050     11.362    -0.174
854.298     11.342    -0.184
866.724     11.332    -0.182
879.330     11.322    -0.210
892.120     11.323    -0.231
905.097     11.313    -0.285
918.262     11.311    -0.353
931.618     11.305    -0.427
945.169     11.301    -0.485
958.917     11.297    -0.553
972.864     11.288    -0.612
987.015     11.287    -0.674
1001.37     11.286    -0.754
1015.94     11.288    -0.843
1030.71     11.285    -0.962
1045.71     11.286    -1.047
1060.92     11.284    -1.180
1076.35     11.278    -1.330
1092.00     11.274    -1.477
1107.89     11.272    -1.592
1124.00     11.263    -1.732
1140.35     11.255    -1.912
1156.94     11.251    -2.078
1173.77     11.233    -2.248
1190.84     11.218    -2.440
1208.16     11.205    -2.606
1225.73     11.186    -2.823
1243.56     11.163    -3.007
1261.65     11.137    -3.214
1280.00     11.111    -3.380
1298.62     11.078    -3.589
1317.51     11.043    -3.789
1336.67     10.999    -3.975
1356.11     10.957    -4.109
1375.84     10.917    -4.281
1395.85     10.875    -4.460
1416.15     10.820    -4.635
1436.75     10.759    -4.763
1457.65     10.704    -4.875
1478.85     10.642    -4.963
1500.36     10.575    -5.065
1522.19     10.505    -5.141
1544.33     10.424    -5.147
1566.79     10.351    -5.071
1589.58     10.282    -5.025
1612.70     10.208    -4.925
1636.16     10.135    -4.785
1659.95     10.066    -4.603
1684.10     10.002    -4.381
1708.60      9.940    -4.161
1733.45      9.879    -3.910
1758.66      9.816    -3.619
1784.24      9.758    -3.270
1810.19      9.707    -2.909
1836.52      9.657    -2.519
1863.24      9.610    -2.066
1890.34      9.570    -1.590
1917.83      9.537    -1.077
1945.73      9.511    -0.527
1974.03      9.492     0.052
2002.74      9.483     0.657
2031.87      9.483     1.285
2061.43      9.495     1.929
2091.41      9.517     2.577
2121.83      9.551     3.231
2152.69      9.599     3.877
2184.01      9.658     4.506
2215.77      9.731     5.111
2248.00      9.817     5.679
2280.70      9.918     6.207
2313.87     10.032     6.669
2347.53     10.159     7.059
2381.68     10.298     7.361
2416.32     10.447     7.561
2451.46     10.600     7.645
2487.12     10.753     7.617
2523.30     10.902     7.492
2560.00     11.043     7.288
2597.24     11.176     7.027
2635.01     11.301     6.729
2673.34     11.419     6.384
2712.23     11.528     6.012
2751.68     11.631     5.609
2791.70     11.726     5.182
2832.31     11.813     4.736
2873.50     11.893     4.273
2915.30     11.964     3.799
2957.70     12.029     3.315
3000.72     12.087     2.826
3044.37     12.138     2.335
3088.65     12.182     1.845
3133.58     12.221     1.357
3179.16     12.255     0.872
3225.40     12.284     0.390
3272.31     12.309    -0.097
3319.91     12.331    -0.586
3368.20     12.348    -1.076
3417.19     12.361    -1.566
3466.89     12.369    -2.062
3517.32     12.373    -2.559
3568.48     12.372    -3.056
3620.39     12.367    -3.554
3673.05     12.355    -4.054
3726.47     12.339    -4.551
3780.67     12.319    -5.044
3835.67     12.292    -5.533
3891.46     12.261    -6.017
3948.06     12.224    -6.492
4005.49     12.184    -6.959
4063.75     12.138    -7.411
4122.86     12.088    -7.850
4182.82     12.034    -8.276
4243.66     11.977    -8.689
4305.39     11.917    -9.089
4368.01     11.854    -9.475
4431.55     11.788    -9.846
4496.01     11.719   -10.201
4561.40     11.647   -10.539
4627.75     11.573   -10.860
4695.06     11.497   -11.163
4763.35     11.419   -11.445
4832.64     11.339   -11.706
4902.93     11.259   -11.949
4974.24     11.178   -12.173
5046.60     11.097   -12.376
5120.00     11.016   -12.562
5194.47     10.934   -12.730
5270.03     10.853   -12.879
5346.68     10.771   -13.009
5424.45     10.689   -13.122
5503.35     10.608   -13.218
5583.40     10.525   -13.277
5664.61     10.442   -13.305
5747.01     10.361   -13.315
5830.60     10.281   -13.310
5915.41     10.218   -13.283
6001.45     10.159   -13.246
6088.74     10.102   -13.201
6177.30     10.044   -13.158
6267.15      9.980   -13.161
6358.31      9.917   -13.154
6450.80      9.854   -13.137
6544.62      9.792   -13.100
6639.82      9.730   -13.038
6736.40      9.670   -12.967
6834.38      9.610   -12.887
6933.79      9.552   -12.796
7034.64      9.495   -12.695
7136.96      9.439   -12.587
7240.77      9.385   -12.471
7346.09      9.332   -12.339
7452.94      9.281   -12.201
7561.35      9.231   -12.057
7671.33      9.182   -11.905
7782.91      9.135   -11.743
7896.12      9.089   -11.577
8010.97      9.045   -11.406
8127.49      9.002   -11.227
8245.71      8.961   -11.043
8365.65      8.921   -10.855
8487.33      8.883   -10.663
8610.78      8.846   -10.466
8736.03      8.810   -10.265
8863.09      8.776   -10.062
8992.01      8.742    -9.856
9122.80      8.711    -9.646
9255.50      8.681    -9.434
9390.12      8.652    -9.221
9526.70      8.624    -9.009
9665.27      8.598    -8.798
9805.86      8.572    -8.587
9948.49      8.548    -8.374
10093.2      8.524    -8.167
10240.0      8.501    -7.960
10388.9      8.479    -7.752
10540.1      8.457    -7.544
10693.4      8.435    -7.337
10848.9      8.414    -7.128
11006.7      8.394    -6.919
11166.8      8.374    -6.708
11329.2      8.354    -6.493
11494.0      8.336    -6.278
11661.2      8.317    -6.063
11830.8      8.300    -5.845
12002.9      8.283    -5.626
12177.5      8.267    -5.406
12354.6      8.251    -5.187
12534.3      8.236    -4.963
12716.6      8.222    -4.740
12901.6      8.208    -4.517
13089.2      8.195    -4.293
13279.6      8.182    -4.067
13472.8      8.170    -3.842
13668.8      8.159    -3.617
13867.6      8.148    -3.391
14069.3      8.138    -3.165
14273.9      8.128    -2.940
14481.5      8.118    -2.715
14692.2      8.109    -2.484
14905.9      8.101    -2.253
15122.7      8.093    -2.023
15342.7      8.086    -1.794
15565.8      8.082    -1.569
15792.2      8.079    -1.346
16021.9      8.076    -1.124
16255.0      8.072    -0.906
16491.4      8.066    -0.693
16731.3      8.060    -0.480
16974.7      8.055    -0.269
17221.6      8.051    -0.050
17472.1      8.047     0.170
17726.2      8.043     0.389
17984.0      8.040     0.608
18245.6      8.037     0.828
18511.0      8.035     1.047
18780.2      8.033     1.265
19053.4      8.031     1.480
19330.5      8.029     1.694
19611.7      8.027     1.907
19897.0      8.026     2.118
20186.4      8.025     2.329
20480.0      8.025     2.538
20777.9      8.024     2.747
21080.1      8.024     2.954
21386.7      8.024     3.160
21697.8      8.024     3.365
22013.4      8.024     3.569
22333.6      8.025     3.772
22658.4      8.026     3.974
22988.0      8.027     4.175
23322.4      8.028     4.375
23661.6      8.029     4.574
24005.8      8.031     4.772
24355.0      8.032     4.968
24709.2      8.034     5.164
25068.6      8.036     5.359
25433.2      8.038     5.553
25803.2      8.041     5.746
26178.5      8.043     5.937
26559.3      8.045     6.128
26945.6      8.048     6.318
27337.5      8.051     6.507
27735.2      8.054     6.695
28138.6      8.056     6.883
28547.9      8.059     7.069
28963.1      8.063     7.255
29384.4      8.066     7.439
29811.8      8.069     7.623
30245.4      8.072     7.806
30685.3      8.076     7.988
31131.7      8.079     8.169
31584.5      8.083     8.350
32043.9      8.087     8.530
32510.0      8.090     8.709
32982.8      8.094     8.887
33462.6      8.098     9.065
33949.3      8.102     9.241
34443.1      8.106     9.417
34944.1      8.110     9.593
35452.4      8.114     9.768
35968.0      8.118     9.942
36491.2      8.122    10.115
37022.0      8.126    10.288
37560.5      8.130    10.460
38106.8      8.135    10.631
38661.1      8.139    10.802
39223.4      8.143    10.973
39793.9      8.147    11.142
