Freq[Hz]      Mag   Phase[Deg]
5.00000      6.024     0.000
5.07273      6.713     0.000
5.14651      7.402     0.000
5.22137      8.088     0.000
5.29732      8.772     0.000
5.37437      9.455     0.000
5.45254     10.136     0.000
5.53185     10.815     0.000
5.61231     11.492     0.000
5.69394     12.168     0.000
5.77676     12.842     0.000
5.86079     13.515     0.000
5.94604     14.185     0.000
6.03252     14.855     0.000
6.12027     15.523     0.000
6.20929     16.189     0.000
6.29961     16.854     0.000
6.39124     17.518     0.000
6.48420     18.180     0.000
6.57851     18.842     0.000
6.67420     19.502     0.000
6.77128     20.161     0.000
6.86977     20.819     0.000
6.96969     21.476     0.000
7.07107     22.132     0.000
7.17392     22.788     0.000
7.27827     23.442     0.000
7.38413     24.097     0.000
7.49154     24.751     0.000
7.60050     25.404     0.000
7.71105     26.058     0.000
7.82321     26.711     0.000
7.93701     27.364     0.000
8.05245     28.017     0.000
8.16958     28.671     0.000
8.28841     29.325     0.000
8.40896     29.980     0.000
8.53128     30.635     0.000
8.65537     31.292     0.000
8.78126     31.949     0.000
8.90899     32.607     0.000
9.03857     33.267     0.000
9.17004     33.928     0.000
9.30342     34.590     0.000
9.43874     35.254     0.000
9.57603     35.920     0.000
9.71532     36.587     0.000
9.85663     37.257     0.000
10.0000     37.928     0.000
10.1455     38.478     0.000
10.2930     38.841     0.000
10.4427     39.289     0.000
10.5946     39.793     0.000
10.7487     40.371     0.000
10.9051     41.021     0.000
11.0637     41.722     0.000
11.2246     42.461     0.000
11.3879     43.229     0.000
11.5535     44.021     0.000
11.7216     44.829     0.000
11.8921     45.642     0.000
12.0650     46.459     0.000
12.2405     47.275     0.000
12.4186     48.087     0.000
12.5992     48.893     0.000
12.7825     49.690     0.000
12.9684     50.481     0.000
13.1570     51.263     0.000
13.3484     52.038     0.000
13.5426     52.805     0.000
13.7395     53.556     0.000
13.9394     54.304     0.000
14.1421     55.044     0.000
14.3478     55.777     0.000
14.5565     56.503     0.000
14.7683     57.220     0.000
14.9831     57.929     0.000
15.2010     58.633     0.000
15.4221     59.333     0.000
15.6464     60.027     0.000
15.8740     60.714     0.000
16.1049     61.397     0.000
16.3392     62.076     0.000
16.5768     62.750     0.000
16.8179     63.422     0.000
17.0626     64.091     0.000
17.3107     64.753     0.000
17.5625     65.412     0.000
17.8180     66.072     0.000
18.0771     66.729     0.000
18.3401     67.384     0.000
18.6068     68.037     0.000
18.8775     68.688     0.000
19.1521     69.335     0.000
19.4306     69.982     0.000
19.7133     70.631     0.000
20.0000     71.279     0.000
20.2909     71.926     0.000
20.5860     72.574     0.000
20.8855     73.223     0.000
21.1893     73.871     0.000
21.4975     74.518     0.000
21.8102     75.165     0.000
22.1274     75.816     0.000
22.4492     76.466     0.000
22.7758     77.116     0.000
23.1071     77.768     0.000
23.4432     78.415     0.000
23.7841     79.063     0.000
24.1301     79.710     0.000
24.4811     80.353     0.000
24.8372     80.993     0.000
25.1984     81.630     0.000
25.5649     82.261     0.000
25.9368     82.878     0.000
26.3141     83.484     0.000
26.6968     84.079     0.000
27.0851     84.658     0.000
27.4791     85.215     0.000
27.8788     85.744     0.000
28.2843     86.246     0.000
28.6957     86.717     0.000
29.1131     87.162     0.000
29.5365     87.558     0.000
29.9661     87.932     0.000
30.4020     88.305     0.000
30.8442     88.643     0.000
31.2929     88.981     0.000
31.7480     89.304     0.000
32.2098     89.586     0.000
32.6783     89.877     0.000
33.1536     90.165     0.000
33.6359     90.419     0.000
34.1251     90.640     0.000
34.6215     90.854     0.000
35.1250     91.051     0.000
35.6359     91.215     0.000
36.1543     91.379     0.000
36.6802     91.549     0.000
37.2137     91.708     0.000
37.7550     91.861     0.000
38.3041     92.022     0.000
38.8613     92.178     0.000
39.4265     92.330     0.000
40.0000     92.486     0.000
40.5818     92.634     0.000
41.1721     92.779     0.000
41.7710     92.930     0.000
42.3785     93.073     0.000
42.9949     93.214     0.000
43.6203     93.360     0.000
44.2548     93.509     0.000
44.8985     93.657     0.000
45.5515     93.807     0.000
46.2141     93.958     0.000
46.8863     94.110     0.000
47.5683     94.262     0.000
48.2602     94.417     0.000
48.9621     94.578     0.000
49.6743     94.740     0.000
50.3968     94.906     0.000
51.1299     95.072     0.000
51.8736     95.222     0.000
52.6281     95.368     0.000
53.3936     95.526     0.000
54.1702     95.690     0.000
54.9581     95.856     0.000
55.7575     96.021     0.000
56.5685     96.188     0.000
57.3914     96.356     0.000
58.2261     96.519     0.000
59.0730     96.672     0.000
59.9323     96.817     0.000
60.8040     96.966     0.000
61.6884     97.115     0.000
62.5857     97.254     0.000
63.4960     97.387     0.000
64.4196     97.514     0.000
65.3566     97.639     0.000
66.3073     97.759     0.000
67.2717     97.868     0.000
68.2502     97.970     0.000
69.2429     98.063     0.000
70.2501     98.146     0.000
71.2719     98.222     0.000
72.3086     98.289     0.000
73.3603     98.348     0.000
74.4274     98.401     0.000
75.5099     98.449     0.000
76.6083     98.485     0.000
77.7226     98.498     0.000
78.8531     98.496     0.000
80.0000     98.519     0.000
81.1636     98.564     0.000
82.3442     98.599     0.000
83.5419     98.626     0.000
84.7570     98.642     0.000
85.9899     98.650     0.000
87.2406     98.654     0.000
88.5096     98.675     0.000
89.7970     98.707     0.000
91.1031     98.726     0.000
92.4282     98.737     0.000
93.7726     98.750     0.000
95.1366     98.764     0.000
96.5204     98.779     0.000
97.9243     98.789     0.000
99.3486     98.784     0.000
100.794     98.766     0.000
102.260     98.738     0.000
103.747     98.744     0.000
105.256     98.831     0.000
106.787     98.931     0.000
108.340     98.973     0.000
109.916     98.990     0.000
111.515     98.992     0.000
113.137     98.973     0.000
114.783     98.942     0.000
116.452     98.911     0.000
118.146     98.892     0.000
119.865     98.879     0.000
121.608     98.864     0.000
123.377     98.850     0.000
125.171     98.823     0.000
126.992     98.787     0.000
128.839     98.809     0.000
130.713     98.871     0.000
132.615     98.874     0.000
134.543     98.831     0.000
136.500     98.784     0.000
138.486     98.736     0.000
140.500     98.685     0.000
142.544     98.636     0.000
144.617     98.613     0.000
146.721     98.608     0.000
148.855     98.577     0.000
151.020     98.521     0.000
153.217     98.492     0.000
155.445     98.499     0.000
157.706     98.487     0.000
160.000     98.447     0.000
162.327     98.405     0.000
164.688     98.366     0.000
167.084     98.319     0.000
169.514     98.263     0.000
171.980     98.216     0.000
174.481     98.182     0.000
177.019     98.163     0.000
179.594     98.152     0.000
182.206     98.139     0.000
184.856     98.128     0.000
187.545     98.141     0.000
190.273     98.152     0.000
193.041     98.147     0.000
195.849     98.167     0.000
198.697     98.210     0.000
201.587     98.250     0.000
204.520     98.252     0.000
207.494     98.214     0.000
210.512     98.162     0.000
213.574     98.089     0.000
216.681     98.010     0.000
219.833     97.942     0.000
223.030     97.864     0.000
226.274     97.802     0.000
229.565     97.765     0.000
232.905     97.720     0.000
236.292     97.679     0.000
239.729     97.660     0.000
243.216     97.654     0.000
246.754     97.630     0.000
250.343     97.594     0.000
253.984     97.565     0.000
257.678     97.513     0.000
261.426     97.459     0.000
265.229     97.432     0.000
269.087     97.391     0.000
273.001     97.338     0.000
276.972     97.298     0.000
281.000     97.272     0.000
285.088     97.253     0.000
289.234     97.225     0.000
293.441     97.191     0.000
297.709     97.157     0.000
302.040     97.126     0.000
306.433     97.109     0.000
310.890     97.081     0.000
315.412     97.043     0.000
320.000     97.010     0.000
324.655     96.982     0.000
329.377     96.956     0.000
334.168     96.935     0.000
339.028     96.912     0.000
343.959     96.899     0.000
348.962     96.886     0.000
354.038     96.870     0.000
359.188     96.851     0.000
364.412     96.822     0.000
369.713     96.769     0.000
375.090     96.726     0.000
380.546     96.686     0.000
386.081     96.643     0.000
391.697     96.604     0.000
397.394     96.566     0.000
403.175     96.527     0.000
409.039     96.485     0.000
414.989     96.452     0.000
421.025     96.419     0.000
427.149     96.388     0.000
433.362     96.361     0.000
439.665     96.329     0.000
446.060     96.305     0.000
452.548     96.288     0.000
459.131     96.272     0.000
465.809     96.261     0.000
472.584     96.261     0.000
479.458     96.253     0.000
486.432     96.255     0.000
493.507     96.269     0.000
500.686     96.285     0.000
507.968     96.292     0.000
515.357     96.212     0.000
522.853     96.134     0.000
530.458     96.066     0.000
538.174     96.006     0.000
546.002     95.957     0.000
553.943     95.916     0.000
562.001     95.881     0.000
570.175     95.853     0.000
578.469     95.844     0.000
586.883     95.872     0.000
595.419     95.930     0.000
604.080     95.993     0.000
612.866     96.043     0.000
621.780     96.089     0.000
630.824     96.140     0.000
640.000     96.201     0.000
649.309     96.259     0.000
658.753     96.116     0.000
668.335     95.889     0.000
678.056     95.667     0.000
687.919     95.449     0.000
697.925     95.248     0.000
708.077     95.052     0.000
718.376     94.860     0.000
728.825     94.782     0.000
739.426     94.793     0.000
750.181     94.831     0.000
761.093     94.875     0.000
772.163     94.926     0.000
783.394     94.974     0.000
794.789     95.043     0.000
806.349     95.142     0.000
818.078     95.262     0.000
829.977     95.377     0.000
842.050     95.504     0.000
854.298     95.618     0.000
866.724     95.741     0.000
879.330     95.821     0.000
892.120     95.899     0.000
905.097     95.957     0.000
918.262     96.004     0.000
931.618     96.036     0.000
945.169     96.061     0.000
958.917     96.084     0.000
972.864     96.095     0.000
987.015     96.110     0.000
1001.37     96.121     0.000
1015.94     96.117     0.000
1030.71     96.085     0.000
1045.71     96.039     0.000
1060.92     96.002     0.000
1076.35     95.969     0.000
1092.00     95.944     0.000
1107.89     95.927     0.000
1124.00     95.910     0.000
1140.35     95.904     0.000
1156.94     95.896     0.000
1173.77     95.881     0.000
1190.84     95.883     0.000
1208.16     95.849     0.000
1225.73     95.784     0.000
1243.56     95.689     0.000
1261.65     95.596     0.000
1280.00     95.491     0.000
1298.62     95.400     0.000
1317.51     95.306     0.000
1336.67     95.211     0.000
1356.11     95.101     0.000
1375.84     95.004     0.000
1395.85     94.912     0.000
1416.15     94.825     0.000
1436.75     94.731     0.000
1457.65     94.632     0.000
1478.85     94.535     0.000
1500.36     94.466     0.000
1522.19     94.458     0.000
1544.33     94.498     0.000
1566.79     94.529     0.000
1589.58     94.576     0.000
1612.70     94.624     0.000
1636.16     94.672     0.000
1659.95     94.715     0.000
1684.10     94.754     0.000
1708.60     94.802     0.000
1733.45     94.854     0.000
1758.66     94.914     0.000
1784.24     94.961     0.000
1810.19     94.956     0.000
1836.52     94.872     0.000
1863.24     94.718     0.000
1890.34     94.552     0.000
1917.83     94.383     0.000
1945.73     94.217     0.000
1974.03     94.053     0.000
2002.74     93.889     0.000
2031.87     93.728     0.000
2061.43     93.570     0.000
2091.41     93.413     0.000
2121.83     93.253     0.000
2152.69     93.094     0.000
2184.01     92.949     0.000
2215.77     92.822     0.000
2248.00     92.715     0.000
2280.70     92.628     0.000
2313.87     92.557     0.000
2347.53     92.505     0.000
2381.68     92.477     0.000
2416.32     92.508     0.000
2451.46     92.624     0.000
2487.12     92.801     0.000
2523.30     92.987     0.000
2560.00     93.186     0.000
2597.24     93.383     0.000
2635.01     93.597     0.000
2673.34     93.805     0.000
2712.23     93.979     0.000
2751.68     94.034     0.000
2791.70     94.018     0.000
2832.31     93.980     0.000
2873.50     93.946     0.000
2915.30     93.909     0.000
2957.70     93.871     0.000
3000.72     93.809     0.000
3044.37     93.688     0.000
3088.65     93.516     0.000
3133.58     93.326     0.000
3179.16     93.138     0.000
3225.40     92.943     0.000
3272.31     92.758     0.000
3319.91     92.601     0.000
3368.20     92.525     0.000
3417.19     92.483     0.000
3466.89     92.457     0.000
3517.32     92.422     0.000
3568.48     92.397     0.000
3620.39     92.413     0.000
3673.05     92.512     0.000
3726.47     92.653     0.000
3780.67     92.806     0.000
3835.67     92.961     0.000
3891.46     93.113     0.000
3948.06     93.244     0.000
4005.49     93.352     0.000
4063.75     93.452     0.000
4122.86     93.551     0.000
4182.82     93.634     0.000
4243.66     93.649     0.000
4305.39     93.562     0.000
4368.01     93.426     0.000
4431.55     93.295     0.000
4496.01     93.175     0.000
4561.40     93.096     0.000
4627.75     93.055     0.000
4695.06     93.025     0.000
4763.35     92.998     0.000
4832.64     92.984     0.000
4902.93     92.983     0.000
4974.24     92.991     0.000
5046.60     93.001     0.000
5120.00     92.988     0.000
5194.47     92.930     0.000
5270.03     92.836     0.000
5346.68     92.729     0.000
5424.45     92.595     0.000
5503.35     92.400     0.000
5583.40     92.169     0.000
5664.61     91.959     0.000
5747.01     91.817     0.000
5830.60     91.806     0.000
5915.41     91.857     0.000
6001.45     91.917     0.000
6088.74     92.002     0.000
6177.30     92.104     0.000
6267.15     92.203     0.000
6358.31     92.267     0.000
6450.80     92.278     0.000
6544.62     92.274     0.000
6639.82     92.270     0.000
6736.40     92.263     0.000
6834.38     92.252     0.000
6933.79     92.216     0.000
7034.64     92.123     0.000
7136.96     91.989     0.000
7240.77     91.865     0.000
7346.09     91.783     0.000
7452.94     91.737     0.000
7561.35     91.711     0.000
7671.33     91.705     0.000
7782.91     91.697     0.000
7896.12     91.623     0.000
8010.97     91.474     0.000
8127.49     91.312     0.000
8245.71     91.169     0.000
8365.65     91.054     0.000
8487.33     90.997     0.000
8610.78     91.006     0.000
8736.03     91.055     0.000
8863.09     91.127     0.000
8992.01     91.207     0.000
9122.80     91.282     0.000
9255.50     91.352     0.000
9390.12     91.432     0.000
9526.70     91.519     0.000
9665.27     91.558     0.000
9805.86     91.496     0.000
9948.49     91.326     0.000
10093.2     91.036     0.000
10240.0     90.695     0.000
10388.9     90.478     0.000
10540.1     90.316     0.000
10693.4     90.027     0.000
10848.9     89.646     0.000
11006.7     89.235     0.000
11166.8     88.889     0.000
11329.2     88.690     0.000
11494.0     88.588     0.000
11661.2     88.527     0.000
11830.8     88.487     0.000
12002.9     88.486     0.000
12177.5     88.556     0.000
12354.6     88.637     0.000
12534.3     88.612     0.000
12716.6     88.493     0.000
12901.6     88.387     0.000
13089.2     88.350     0.000
13279.6     88.341     0.000
13472.8     88.260     0.000
13668.8     88.172     0.000
13867.6     88.192     0.000
14069.3     88.327     0.000
14273.9     88.423     0.000
14481.5     88.478     0.000
14692.2     88.601     0.000
14905.9     88.763     0.000
15122.7     88.872     0.000
15342.7     88.850     0.000
15565.8     88.712     0.000
15792.2     88.607     0.000
16021.9     88.730     0.000
16255.0     89.003     0.000
16491.4     89.142     0.000
16731.3     89.131     0.000
16974.7     89.150     0.000
17221.6     89.152     0.000
17472.1     89.238     0.000
17726.2     89.445     0.000
17984.0     89.537     0.000
18245.6     89.291     0.000
18511.0     89.098     0.000
18780.2     89.252     0.000
19053.4     89.369     0.000
19330.5     89.433     0.000
19611.7     89.533     0.000
19897.0     89.592     0.000
20186.4     89.593     0.000
20480.0     89.594     0.000
20777.9     89.596     0.000
21080.1     89.598     0.000
21386.7     89.600     0.000
21697.8     89.603     0.000
22013.4     89.607     0.000
