Freq[Hz]     dBSPL  Phase[Deg]
5.00000    -79.338  -166.831
5.07273    -78.962  -158.195
5.14651    -78.586  -149.433
5.22137    -78.210  -140.543
5.29732    -77.834  -131.524
5.37437    -77.458  -122.374
5.45254    -77.082  -113.091
5.53185    -76.706  -103.672
5.61231    -76.330   -94.117
5.69394    -75.954   -84.423
5.77676    -75.578   -74.587
5.86079    -75.202   -64.609
5.94604    -74.826   -54.485
6.03252    -74.450   -44.214
6.12027    -74.074   -33.794
6.20929    -73.698   -23.222
6.29961    -73.322   -12.497
6.39124    -72.945    -1.615
6.48420    -72.569     9.425
6.57851    -72.193    20.625
6.67420    -71.817    31.988
6.77128    -71.441    43.517
6.86977    -71.065    55.214
6.96969    -70.688    67.080
7.07107    -70.312    79.119
7.17392    -69.936    91.334
7.27827    -69.560   103.726
7.38413    -69.184   116.298
7.49154    -68.807   129.053
7.60050    -68.431   141.994
7.71105    -68.055   155.123
7.82321    -67.679   168.442
7.93701    -67.302  -178.044
8.05245    -66.926  -164.334
8.16958    -66.550  -150.424
8.28841    -66.173  -136.312
8.40896    -65.797  -121.995
8.53128    -65.421  -107.469
8.65537    -65.044   -92.732
8.78126    -64.668   -77.781
8.90899    -64.291   -62.612
9.03857    -63.915   -47.223
9.17004    -63.538   -31.609
9.30342    -63.162   -15.769
9.43874    -62.786     0.302
9.57603    -62.409    16.606
9.71532    -62.033    33.148
9.85663    -61.656    49.931
10.0000    -61.279    66.957
10.1455    -60.900   -45.804
10.2930    -60.524   -50.216
10.4427    -60.146    22.336
10.5946    -59.767    36.981
10.7487    -59.398    77.210
10.9051    -59.018    92.274
11.0637    -58.640   118.096
11.2246    -58.264   133.410
11.3879    -57.886   150.965
11.5535    -57.511   166.498
11.7216    -57.136   178.619
11.8921    -56.758  -165.645
12.0650    -56.381  -157.421
12.2405    -56.002  -141.530
12.4186    -55.626  -136.274
12.5992    -55.258  -120.235
12.7825    -54.873  -117.194
12.9684    -54.498  -101.119
13.1570    -54.122   -99.925
13.3484    -53.743   -84.365
13.5426    -53.371   -82.819
13.7395    -52.993   -69.841
13.9394    -52.617   -66.938
14.1421    -52.238   -56.315
14.3478    -51.858   -52.303
14.5565    -51.489   -43.723
14.7683    -51.112   -38.661
14.9831    -50.733   -31.807
15.2010    -50.358   -25.959
15.4221    -49.980   -20.600
15.6464    -49.605   -14.043
15.8740    -49.230    -9.997
16.1049    -48.853    -2.792
16.3392    -48.476     0.074
16.5768    -48.095     7.834
16.8179    -47.716     9.583
17.0626    -47.355    17.823
17.3107    -46.970    18.773
17.5625    -46.596    27.156
17.8180    -46.221    28.079
18.0771    -45.843    35.457
18.3401    -45.471    37.126
18.6068    -45.094    43.431
18.8775    -44.719    45.797
19.1521    -44.339    51.101
19.4306    -43.956    54.039
19.7133    -43.591    58.328
20.0000    -43.223    61.941
20.2909    -42.845    65.459
20.5860    -42.473    69.543
20.8855    -42.099    72.291
21.1893    -41.725    76.863
21.4975    -41.347    78.930
21.8102    -40.957    83.855
22.1274    -40.601    85.092
22.4492    -40.241    90.573
22.7758    -39.865    91.347
23.1071    -39.501    97.032
23.4432    -39.130    97.717
23.7841    -38.767   102.836
24.1301    -38.403   104.136
24.4811    -38.038   108.601
24.8372    -37.676   110.664
25.1984    -37.216   114.566
25.5649    -36.842   116.210
25.9368    -36.529   119.501
26.3141    -36.156   122.528
26.6968    -35.724   125.499
27.0851    -35.266   128.511
27.4791    -34.825   130.324
27.8788    -34.429   133.414
28.2843    -33.998   134.906
28.6957    -33.588   137.846
29.1131    -33.299   138.942
29.5365    -32.815   143.151
29.9661    -32.446   142.910
30.4020    -32.081   147.376
30.8442    -31.690   147.054
31.2929    -31.421   151.171
31.7480    -30.975   152.276
32.2098    -30.587   155.252
32.6783    -30.217   156.415
33.1536    -29.833   159.014
33.6359    -29.511   160.506
34.1251    -29.122   163.211
34.6215    -28.713   164.947
35.1250    -28.340   166.826
35.6359    -27.953   168.990
36.1543    -27.563   170.431
36.6802    -27.190   172.782
37.2137    -26.810   173.898
37.7550    -26.434   176.540
38.3041    -26.057   177.286
38.8613    -25.685  -179.840
39.4265    -25.329  -179.319
40.0000    -24.922  -175.992
40.5818    -24.540  -175.939
41.1721    -24.163  -172.890
41.7710    -23.781  -172.450
42.3785    -23.404  -169.822
42.9949    -23.021  -169.047
43.6203    -22.641  -166.817
44.2548    -22.261  -165.750
44.8985    -21.878  -163.870
45.5515    -21.497  -162.547
46.2141    -21.114  -161.002
46.8863    -20.729  -159.433
47.5683    -20.347  -158.251
48.2602    -19.965  -156.448
48.9621    -19.592  -155.597
49.6743    -19.223  -153.431
50.3968    -18.820  -152.739
51.1299    -18.431  -150.545
51.8736    -18.045  -150.190
52.6281    -17.653  -147.771
53.3936    -17.272  -147.651
54.1702    -16.883  -145.261
54.9581    -16.495  -144.957
55.7575    -16.107  -142.883
56.5685    -15.717  -142.331
57.3914    -15.328  -140.566
58.2261    -14.937  -139.788
59.0730    -14.545  -138.306
59.9323    -14.151  -137.317
60.8040    -13.756  -136.112
61.6884    -13.360  -134.930
62.5857    -12.961  -133.997
63.4960    -12.560  -132.638
64.4196    -12.157  -131.975
65.3566    -11.750  -130.473
66.3073    -11.340  -130.106
67.2717    -10.927  -128.527
68.2502    -10.516  -128.530
69.2429    -10.113  -126.990
70.2501     -9.732  -127.375
71.2719     -9.386  -125.963
72.3086     -9.083  -126.044
73.3603     -8.779  -124.314
74.4274     -8.447  -123.656
75.5099     -8.086  -121.916
76.6083     -7.702  -121.044
77.7226     -7.305  -119.619
78.8531     -6.900  -118.697
80.0000     -6.493  -117.600
81.1636     -6.084  -116.593
82.3442     -5.674  -115.762
83.5419     -5.264  -114.645
84.7570     -4.853  -114.050
85.9899     -4.442  -112.813
87.2406     -4.029  -112.424
88.5096     -3.617  -111.064
89.7970     -3.203  -110.873
91.1031     -2.788  -109.399
92.4282     -2.373  -109.386
93.7726     -1.957  -107.891
95.1366     -1.540  -107.802
96.5204     -1.121  -106.520
97.9243     -0.702  -106.291
99.3486     -0.281  -105.213
100.794      0.140  -104.846
102.260      0.564  -103.960
103.747      0.987  -103.473
105.256      1.410  -102.788
106.787      1.841  -102.181
108.340      2.274  -101.664
109.916      2.707  -100.951
111.515      3.140  -100.619
113.137      3.578   -99.822
114.783      4.015   -99.676
116.452      4.451   -98.800
118.146      4.889   -98.825
119.865      5.329   -97.881
121.608      5.769   -98.077
123.377      6.208   -97.129
125.171      6.649   -97.325
126.992      7.091   -96.565
128.839      7.533   -96.674
130.713      7.973   -96.103
132.615      8.417   -96.145
134.543      8.859   -95.766
136.500      9.300   -95.734
138.486      9.741   -95.530
140.500     10.184   -95.447
142.544     10.626   -95.426
144.617     11.065   -95.289
146.721     11.505   -95.437
148.855     11.946   -95.262
151.020     12.384   -95.571
153.217     12.820   -95.351
155.445     13.258   -95.830
157.706     13.693   -95.593
160.000     14.125   -96.206
162.327     14.554   -95.962
164.688     14.987   -96.628
167.084     15.415   -96.551
169.514     15.838   -97.155
171.980     16.260   -97.233
174.481     16.682   -97.806
177.019     17.100   -98.040
179.594     17.513   -98.558
182.206     17.926   -98.950
184.856     18.335   -99.445
187.545     18.740   -99.956
190.273     19.139  -100.392
193.041     19.541  -101.053
195.849     19.936  -101.479
198.697     20.325  -102.227
201.587     20.712  -102.602
204.520     21.098  -103.479
207.494     21.478  -103.833
210.512     21.852  -104.776
213.574     22.224  -105.115
216.681     22.593  -106.099
219.833     22.956  -106.503
223.030     23.313  -107.388
226.274     23.671  -107.913
229.565     24.024  -108.767
232.905     24.371  -109.332
236.292     24.715  -110.090
239.729     25.059  -110.759
243.216     25.398  -111.473
246.754     25.732  -112.149
250.343     26.064  -112.792
253.984     26.396  -113.552
257.678     26.723  -114.120
261.426     27.047  -114.856
265.229     27.371  -115.375
269.087     27.692  -116.169
273.001     28.011  -116.559
276.972     28.327  -117.292
281.000     28.645  -117.629
285.088     28.960  -118.309
289.234     29.273  -118.421
293.441     29.582  -118.566
297.709     30.028  -117.857
302.040     30.662  -118.802
306.433     31.073  -120.849
310.890     31.350  -122.191
315.412     31.628  -122.749
320.000     32.020  -122.622
324.655     32.603  -123.232
329.377     33.120  -125.595
334.168     33.415  -127.884
339.028     33.709  -129.330
343.959     34.001  -130.898
348.962     34.289  -132.187
354.038     34.598  -133.459
359.188     34.973  -134.833
364.412     35.252  -136.974
369.713     35.513  -138.422
375.090     35.760  -140.363
380.546     35.990  -141.655
386.081     36.232  -143.649
391.697     36.360  -145.247
397.394     36.523  -146.296
403.175     36.733  -147.292
409.039     36.939  -148.533
414.989     37.150  -149.688
421.025     37.367  -151.020
427.149     37.522  -152.479
433.362     37.619  -153.520
439.665     37.766  -153.971
446.060     38.009  -154.426
452.548     38.263  -155.424
459.131     38.468  -156.550
465.809     38.671  -157.544
472.584     38.875  -158.495
479.458     39.059  -159.425
486.432     39.258  -160.130
493.507     39.544  -161.063
500.686     39.762  -162.571
507.968     39.924  -163.742
515.357     40.088  -164.885
522.853     40.261  -165.883
530.458     40.429  -166.889
538.174     40.594  -167.795
546.002     40.766  -168.767
553.943     40.945  -169.719
562.001     41.116  -170.622
570.175     41.289  -171.550
578.469     41.467  -172.510
586.883     41.647  -173.544
595.419     41.827  -174.492
604.080     42.005  -175.686
612.866     42.160  -176.884
621.780     42.295  -178.143
630.824     42.425  -179.129
640.000     42.549   179.645
649.309     42.667   178.644
658.753     42.783   177.431
668.335     42.894   176.451
678.056     42.997   175.178
687.919     43.092   173.974
697.925     43.151   172.542
708.077     43.163   171.387
718.376     43.154   170.288
728.825     43.142   169.434
739.426     43.130   168.662
750.181     43.109   167.974
761.093     43.079   167.368
772.163     43.045   166.802
783.394     43.005   166.421
794.789     42.946   165.860
806.349     42.850   165.625
818.078     42.747   165.419
829.977     42.635   165.716
842.050     42.513   165.796
854.298     42.385   166.511
866.724     42.256   167.005
879.330     42.118   168.168
892.120     41.972   169.265
905.097     41.862   171.059
918.262     41.770   172.662
931.618     41.681   174.732
945.169     41.593   176.807
958.917     41.522   179.358
972.864     41.467  -177.843
987.015     41.439  -174.571
1001.37     41.466  -170.838
1015.94     41.566  -166.919
1030.71     41.728  -162.605
1045.71     41.968  -158.291
1060.92     42.300  -153.514
1076.35     42.735  -149.109
1092.00     43.270  -144.399
1107.89     43.884  -140.500
1124.00     44.591  -136.166
1140.35     45.379  -133.009
1156.94     46.230  -129.673
1173.77     47.127  -127.563
1190.84     48.064  -125.560
1208.16     48.974  -124.812
1225.73     49.829  -124.021
1243.56     50.656  -123.707
1261.65     51.477  -123.293
1280.00     52.292  -123.254
1298.62     53.096  -123.350
1317.51     53.894  -123.602
1336.67     54.684  -124.142
1356.11     55.462  -124.634
1375.84     56.228  -125.607
1395.85     56.991  -126.280
1416.15     57.742  -127.634
1436.75     58.484  -128.469
1457.65     59.216  -130.210
1478.85     59.943  -131.188
1500.36     60.655  -133.330
1522.19     61.339  -134.640
1544.33     62.002  -136.860
1566.79     62.656  -138.288
1589.58     63.302  -140.442
1612.70     63.940  -142.060
1636.16     64.577  -144.195
1659.95     65.209  -146.024
1684.10     65.834  -148.155
1708.60     66.454  -150.220
1733.45     67.074  -152.342
1758.66     67.689  -154.648
1784.24     68.299  -156.747
1810.19     68.910  -159.289
1836.52     69.526  -161.372
1863.24     70.142  -164.231
1890.34     70.755  -166.379
1917.83     71.365  -169.600
1945.73     71.973  -171.806
1974.03     72.576  -175.370
2002.74     73.175  -177.785
2031.87     73.773   178.473
2061.43     74.365   175.609
2091.41     74.943   171.564
2121.83     75.476   168.072
2152.69     75.959   163.933
2184.01     76.412   160.420
2215.77     76.852   156.652
2248.00     77.285   153.111
2280.70     77.710   149.555
2313.87     78.124   145.907
2347.53     78.528   142.608
2381.68     78.928   138.963
2416.32     79.347   136.105
2451.46     79.811   132.398
2487.12     80.298   129.404
2523.30     80.781   124.964
2560.00     81.251   121.713
2597.24     81.711   116.756
2635.01     82.158   113.252
2673.34     82.592   108.020
2712.23     82.998   103.917
2751.68     83.355    98.501
2791.70     83.675    94.167
2832.31     83.977    89.022
2873.50     84.267    84.531
2915.30     84.543    79.507
2957.70     84.808    74.666
3000.72     85.042    69.523
3044.37     85.213    64.172
3088.65     85.322    59.310
3133.58     85.402    54.198
3179.16     85.470    50.008
3225.40     85.527    45.000
3272.31     85.574    41.334
3319.91     85.615    36.403
3368.20     85.656    33.243
3417.19     85.695    28.250
3466.89     85.727    25.404
3517.32     85.752    20.716
3568.48     85.771    17.995
3620.39     85.814    13.978
3673.05     85.904    11.354
3726.47     86.019     7.465
3780.67     86.137     4.341
3835.67     86.254     0.512
3891.46     86.376    -2.888
3948.06     86.511    -6.484
4005.49     86.663   -10.265
4063.75     86.824   -13.898
4122.86     86.985   -18.315
4182.82     87.137   -22.109
4243.66     87.255   -27.281
4305.39     87.322   -31.064
4368.01     87.363   -36.417
4431.55     87.401   -39.727
4496.01     87.431   -45.450
4561.40     87.422   -48.737
4627.75     87.371   -54.367
4695.06     87.307   -57.516
4763.35     87.242   -62.559
4832.64     87.178   -65.763
4902.93     87.113   -70.391
4974.24     87.047   -73.805
5046.60     86.978   -78.148
5120.00     86.891   -81.928
5194.47     86.771   -85.949
5270.03     86.625   -89.777
5346.68     86.473   -92.989
5424.45     86.329   -96.603
5503.35     86.211   -99.021
5583.40     86.121  -102.735
5664.61     86.044  -104.599
5747.01     86.005  -108.291
5830.60     86.041  -109.543
5915.41     86.106  -114.202
6001.45     86.162  -116.049
6088.74     86.197  -121.298
6177.30     86.212  -123.574
6267.15     86.210  -128.476
6358.31     86.169  -131.179
6450.80     86.071  -135.656
6544.62     85.961  -137.972
6639.82     85.918  -141.033
6736.40     85.978  -143.197
6834.38     86.103  -146.228
6933.79     86.247  -149.567
7034.64     86.396  -152.870
7136.96     86.545  -157.250
7240.77     86.672  -160.760
7346.09     86.760  -166.141
7452.94     86.811  -169.433
7561.35     86.833  -175.398
7671.33     86.806  -178.209
7782.91     86.754   175.628
7896.12     86.698   173.767
8010.97     86.639   167.904
8127.49     86.618   166.513
8245.71     86.695   161.572
8365.65     86.836   159.473
8487.33     87.011   154.282
8610.78     87.213   150.879
8736.03     87.388   145.072
8863.09     87.487   140.292
8992.01     87.526   134.811
9122.80     87.530   129.785
9255.50     87.532   125.478
9390.12     87.618   120.633
9526.70     87.828   116.804
9665.27     88.048   109.813
9805.86     88.168   104.923
9948.49     88.190    96.519
10093.2     88.125    92.376
10240.0     88.015    83.939
10388.9     87.968    81.441
10540.1     87.957    72.533
10693.4     87.910    69.256
10848.9     87.825    60.693
11006.7     87.705    57.082
11166.8     87.627    49.841
11329.2     87.657    45.836
11494.0     87.697    38.258
11661.2     87.657    32.355
11830.8     87.541    25.212
12002.9     87.411    19.067
12177.5     87.343    13.270
12354.6     87.312     5.903
12534.3     87.217     0.075
12716.6     87.051    -8.465
12901.6     86.894   -12.669
13089.2     86.812   -21.847
13279.6     86.756   -25.621
13472.8     86.576   -37.035
13668.8     86.331   -39.151
13867.6     86.162   -50.195
14069.3     86.102   -51.832
14273.9     86.070   -62.828
14481.5     86.061   -65.807
14692.2     86.133   -76.337
14905.9     86.223   -81.445
15122.7     86.266   -92.249
15342.7     86.287   -99.164
15565.8     86.352  -109.273
15792.2     86.438  -119.103
16021.9     86.270  -130.275
16255.0     85.772  -141.539
16491.4     85.405  -146.745
16731.3     85.506  -157.127
16974.7     85.850  -162.448
17221.6     86.128   179.750
17472.1     86.132   173.757
17726.2     86.064   152.127
17984.0     86.034   149.957
18245.6     85.951   123.644
18511.0     86.146   124.025
18780.2     86.674    93.537
19053.4     87.141    87.566
19330.5     87.729    47.696
19611.7     88.569    33.323
19897.0     89.434   -53.813
20186.4     89.402   -63.581
20480.0     89.370   -73.411
20777.9     89.337   -83.304
21080.1     89.305   -93.261
21386.7     89.272  -103.284
21697.8     89.240  -113.373
22013.4     89.207  -123.530
