Freq[Hz]     dBSPL  Phase[Deg]
5.00000    -20.796    -2.551
5.07273    -20.410     3.609
5.14651    -20.025     9.860
5.22137    -19.639    16.202
5.29732    -19.253    22.636
5.37437    -18.867    29.165
5.45254    -18.481    35.789
5.53185    -18.095    42.509
5.61231    -17.708    49.328
5.69394    -17.322    56.247
5.77676    -16.936    63.267
5.86079    -16.550    70.389
5.94604    -16.164    77.616
6.03252    -15.778    84.948
6.12027    -15.392    92.388
6.20929    -15.005    99.936
6.29961    -14.619   107.594
6.39124    -14.233   115.365
6.48420    -13.847   123.249
6.57851    -13.461   131.248
6.67420    -13.075   139.365
6.77128    -12.689   147.600
6.86977    -12.303   155.955
6.96969    -11.917   164.432
7.07107    -11.531   173.034
7.17392    -11.145  -178.239
7.27827    -10.760  -169.384
7.38413    -10.374  -160.400
7.49154     -9.989  -151.285
7.60050     -9.603  -142.036
7.71105     -9.218  -132.653
7.82321     -8.833  -123.132
7.93701     -8.448  -113.472
8.05245     -8.063  -103.671
8.16958     -7.679   -93.726
8.28841     -7.295   -83.637
8.40896     -6.911   -73.400
8.53128     -6.527   -63.013
8.65537     -6.143   -52.475
8.78126     -5.760   -41.783
8.90899     -5.377   -30.935
9.03857     -4.994   -19.929
9.17004     -4.612    -8.762
9.30342     -4.230     2.568
9.43874     -3.848    14.063
9.57603     -3.467    25.726
9.71532     -3.086    37.559
9.85663     -2.706    49.564
10.0000     -2.326    61.745
10.1455     -1.947   -87.655
10.2930     -1.568   -93.430
10.4427     -1.189   -35.004
10.5946     -0.812   -22.361
10.7487     -0.434     9.285
10.9051     -0.058    21.760
11.0637      0.318    41.901
11.2246      0.693    54.263
11.3879      1.067    67.994
11.5535      1.441    80.263
11.7216      1.814    89.900
11.8921      2.186   102.095
12.0650      2.556   108.896
12.2405      2.926   121.027
12.4186      3.296   125.742
12.5992      3.664   137.808
12.7825      4.031   140.919
12.9684      4.397   152.934
13.1570      4.761   154.779
13.3484      5.125   166.331
13.5426      5.487   168.416
13.7395      5.848   178.115
13.9394      6.207  -178.898
14.1421      6.565  -170.830
14.3478      6.922  -167.107
14.5565      7.277  -160.416
14.7683      7.631  -156.081
14.9831      7.982  -150.566
15.2010      8.332  -145.716
15.4221      8.681  -141.213
15.6464      9.027  -135.925
15.8740      9.372  -132.310
16.1049      9.715  -126.650
16.3392     10.055  -123.814
16.5768     10.394  -117.828
16.8179     10.730  -115.685
17.0626     11.065  -109.424
17.3107     11.396  -107.902
17.5625     11.726  -101.542
17.8180     12.053  -100.043
18.0771     12.377   -94.376
18.3401     12.699   -92.400
18.6068     13.018   -87.482
18.8775     13.335   -85.089
19.1521     13.648   -80.851
19.4306     13.959   -78.077
19.7133     14.267   -74.464
20.0000     14.572   -71.368
20.2909     14.872   -68.332
20.5860     15.170   -64.931
20.8855     15.464   -62.423
21.1893     15.756   -58.757
21.4975     16.044   -56.751
21.8102     16.327   -52.860
22.1274     16.606   -51.312
22.4492     16.881   -47.207
22.7758     17.153   -46.087
23.1071     17.421   -41.856
23.4432     17.683   -40.891
23.7841     17.940   -37.061
24.1301     18.193   -35.806
24.4811     18.440   -32.479
24.8372     18.684   -30.975
25.1984     18.921   -28.145
25.5649     19.151   -26.417
25.9368     19.375   -24.032
26.3141     19.594   -22.107
26.6968     19.806   -20.172
27.0851     20.010   -18.083
27.4791     20.205   -16.565
27.8788     20.393   -14.317
28.2843     20.573   -13.200
28.6957     20.744   -10.838
29.1131     20.903   -10.130
29.5365     21.051    -7.663
29.9661     21.188    -7.327
30.4020     21.314    -4.778
30.8442     21.428    -4.692
31.2929     21.525    -2.496
31.7480     21.604    -2.288
32.2098     21.665    -0.525
32.6783     21.708    -0.206
33.1536     21.730     1.111
33.6359     21.727     1.485
34.1251     21.695     2.366
34.6215     21.633     2.807
35.1250     21.538     3.260
35.6359     21.403     3.717
36.1543     21.223     3.745
36.6802     20.991     4.222
37.2137     20.700     3.852
37.7550     20.343     4.333
38.3041     19.903     3.544
38.8613     19.362     4.006
39.4265     18.702     2.844
40.0000     17.890     3.312
40.5818     16.888     1.887
41.1721     15.623     2.077
41.7710     13.980     0.672
42.3785     11.751     0.509
42.9949      8.454    -0.802
43.6203      2.537    -1.264
44.2548    -25.865   177.513
44.8985      3.628   176.756
45.5515      9.704   175.671
46.2141     13.366   174.714
46.8863     16.014   173.774
47.5683     18.091   172.615
48.2602     19.801   171.867
48.9621     21.254   170.593
49.6743     22.517   170.072
50.3968     23.634   168.695
51.1299     25.934   165.639
51.8736     26.202   165.451
52.6281     26.442   166.527
53.3936     26.694   166.298
54.1702     26.946   167.381
54.9581     27.193   167.153
55.7575     27.434   167.974
56.5685     27.673   167.868
57.3914     27.909   168.519
58.2261     28.146   168.525
59.0730     28.369   168.869
59.9323     28.580   168.945
60.8040     28.779   169.144
61.6884     28.968   169.383
62.5857     29.147   169.508
63.4960     29.318   169.985
64.4196     29.494   170.123
65.3566     29.672   170.800
66.3073     29.857   170.839
67.2717     30.048   171.575
68.2502     30.225   171.347
69.2429     30.396   172.168
70.2501     30.563   171.847
71.2719     30.725   172.683
72.3086     30.892   172.417
73.3603     31.040   172.983
74.4274     31.178   172.832
75.5099     31.308   173.307
76.6083     31.431   173.318
77.7226     31.555   173.669
78.8531     31.663   173.702
80.0000     31.755   173.899
81.1636     31.835   174.096
82.3442     31.904   174.240
83.5419     31.968   174.595
84.7570     32.022   174.587
85.9899     32.049   174.985
87.2406     32.060   174.964
88.5096     32.061   175.570
89.7970     32.048   175.435
91.1031     31.998   176.087
92.4282     31.924   175.988
93.7726     31.823   176.851
95.1366     31.701   177.002
96.5204     31.556   177.860
97.9243     31.358   178.160
99.3486     31.114   179.165
100.794     30.823   179.946
102.260     30.482  -178.667
103.747     30.089  -177.287
105.256     29.614  -175.467
106.787     29.046  -173.138
108.340     28.381  -170.073
109.916     27.620  -165.810
111.515     26.770  -160.283
113.137     25.858  -152.428
114.783     24.974  -142.002
116.452     24.378  -127.541
118.146     24.428  -110.993
119.865     25.281   -94.055
121.608     26.733   -80.504
123.377     28.461   -69.707
125.171     30.227   -62.468
126.992     31.949   -56.783
128.839     33.570   -53.261
130.713     35.074   -50.382
132.615     36.477   -48.557
134.543     37.797   -46.956
136.500     39.060   -45.932
138.486     40.270   -45.231
140.500     41.411   -44.917
142.544     42.493   -44.792
144.617     43.532   -44.686
146.721     44.544   -44.820
148.855     45.541   -44.937
151.020     46.502   -45.591
153.217     47.417   -45.995
155.445     48.307   -46.836
157.706     49.169   -47.271
160.000     50.026   -48.213
162.327     50.866   -48.845
164.688     51.670   -50.048
167.084     52.439   -50.747
169.514     53.211   -51.651
171.980     53.989   -52.278
174.481     54.800   -53.076
177.019     55.648   -54.209
179.594     56.430   -55.806
182.206     57.190   -57.253
184.856     57.945   -58.887
187.545     58.670   -60.691
190.273     59.377   -62.436
193.041     60.074   -64.483
195.849     60.715   -66.645
198.697     61.261   -68.613
201.587     61.871   -69.820
204.520     62.491   -71.768
207.494     63.078   -73.128
210.512     63.694   -74.884
213.574     64.304   -76.275
216.681     64.926   -78.118
219.833     65.550   -79.675
223.030     66.172   -81.630
226.274     66.806   -83.432
229.565     67.421   -85.694
232.905     68.014   -87.799
236.292     68.586   -90.045
239.729     69.153   -92.109
243.216     69.743   -94.221
246.754     70.347   -96.548
250.343     70.935   -99.134
253.984     71.488  -101.990
257.678     71.987  -104.767
261.426     72.443  -107.445
265.229     72.917  -109.644
269.087     73.425  -112.089
273.001     73.947  -114.501
276.972     74.450  -117.398
281.000     74.925  -119.979
285.088     75.408  -122.891
289.234     75.866  -125.727
293.441     76.298  -128.750
297.709     76.702  -131.526
302.040     77.114  -134.261
306.433     77.549  -136.997
310.890     77.957  -140.007
315.412     78.342  -142.865
320.000     78.724  -145.674
324.655     79.109  -148.449
329.377     79.500  -151.198
334.168     79.899  -154.126
339.028     80.290  -157.002
343.959     80.692  -160.037
348.962     81.084  -163.212
354.038     81.459  -166.544
359.188     81.818  -169.909
364.412     82.146  -173.639
369.713     82.407  -177.046
375.090     82.675   179.622
380.546     82.937   176.385
386.081     83.183   173.067
391.697     83.420   169.882
397.394     83.653   166.691
403.175     83.879   163.550
409.039     84.093   160.379
414.989     84.314   157.341
421.025     84.525   154.230
427.149     84.732   151.142
433.362     84.938   148.006
439.665     85.125   144.865
446.060     85.309   141.756
452.548     85.490   138.731
459.131     85.664   135.613
465.809     85.833   132.603
472.584     86.011   129.513
479.458     86.169   126.396
486.432     86.333   123.368
493.507     86.499   120.199
500.686     86.660   116.997
507.968     86.812   113.323
515.357     86.851   109.783
522.853     86.886   106.732
530.458     86.926   103.739
538.174     86.969   100.939
546.002     87.020    98.207
553.943     87.076    95.522
562.001     87.134    92.933
570.175     87.194    90.389
578.469     87.271    88.027
586.883     87.385    85.595
595.419     87.528    83.046
604.080     87.675    80.163
612.866     87.801    77.177
621.780     87.917    74.055
630.824     88.031    70.922
640.000     88.152    67.473
649.309     88.267    63.386
658.753     88.168    58.879
668.335     87.976    55.444
678.056     87.785    52.381
687.919     87.592    49.831
697.925     87.414    47.560
708.077     87.241    45.594
718.376     87.067    44.140
728.825     87.001    43.145
739.426     87.023    41.920
750.181     87.068    40.359
761.093     87.117    38.683
772.163     87.168    36.868
783.394     87.213    35.079
794.789     87.277    33.243
806.349     87.366    31.507
818.078     87.472    29.375
829.977     87.569    27.358
842.050     87.676    24.914
854.298     87.766    22.662
866.724     87.863    19.916
879.330     87.913    17.300
892.120     87.958    14.590
905.097     87.984    11.986
918.262     88.003     9.228
931.618     88.008     6.654
945.169     88.007     4.025
958.917     88.004     1.504
972.864     87.989    -1.094
987.015     87.980    -3.620
1001.37     87.968    -6.191
1015.94     87.943    -8.862
1030.71     87.892   -11.436
1045.71     87.830   -13.903
1060.92     87.778   -16.158
1076.35     87.733   -18.595
1092.00     87.697   -20.679
1107.89     87.672   -23.034
1124.00     87.648   -25.178
1140.35     87.634   -27.724
1156.94     87.618   -29.881
1173.77     87.592   -32.501
1190.84     87.580   -34.847
1208.16     87.546   -37.534
1225.73     87.500   -40.023
1243.56     87.434   -42.603
1261.65     87.373   -44.992
1280.00     87.299   -47.407
1298.62     87.238   -49.787
1317.51     87.176   -52.126
1336.67     87.111   -54.565
1356.11     87.031   -56.822
1375.84     86.964   -59.168
1395.85     86.900   -61.222
1416.15     86.842   -63.644
1436.75     86.774   -65.713
1457.65     86.702   -68.042
1478.85     86.630   -69.815
1500.36     86.588   -71.832
1522.19     86.618   -73.196
1544.33     86.705   -75.493
1566.79     86.784   -77.650
1589.58     86.878   -80.322
1612.70     86.971   -82.954
1636.16     87.061   -86.044
1659.95     87.144   -89.108
1684.10     87.220   -92.496
1708.60     87.301   -95.973
1733.45     87.384   -99.724
1758.66     87.469  -103.956
1784.24     87.528  -108.676
1810.19     87.489  -114.190
1836.52     87.299  -119.603
1863.24     86.980  -124.916
1890.34     86.627  -129.165
1917.83     86.260  -133.639
1945.73     85.880  -137.279
1974.03     85.489  -141.425
2002.74     85.079  -144.689
2031.87     84.655  -148.461
2061.43     84.211  -151.474
2091.41     83.754  -154.783
2121.83     83.287  -157.469
2152.69     82.809  -160.340
2184.01     82.317  -162.761
2215.77     81.805  -165.161
2248.00     81.269  -167.165
2280.70     80.710  -168.839
2313.87     80.121  -170.068
2347.53     79.507  -170.338
2381.68     78.915  -169.478
2416.32     78.543  -166.621
2451.46     78.593  -164.051
2487.12     78.911  -162.718
2523.30     79.268  -163.617
2560.00     79.624  -164.786
2597.24     79.986  -167.632
2635.01     80.359  -170.605
2673.34     80.718  -175.654
2712.23     80.935   178.328
2751.68     80.813   171.082
2791.70     80.470   165.397
2832.31     80.077   160.151
2873.50     79.674   155.736
2915.30     79.263   151.324
2957.70     78.843   147.229
3000.72     78.404   143.153
3044.37     77.930   139.118
3088.65     77.419   135.509
3133.58     76.890   131.913
3179.16     76.352   128.999
3225.40     75.807   125.868
3272.31     75.264   123.819
3319.91     74.777   121.574
3368.20     74.420   120.321
3417.19     74.138   117.490
3466.89     73.864   115.312
3517.32     73.585   111.750
3568.48     73.298   108.919
3620.39     73.007   104.993
3673.05     72.708   101.550
3726.47     72.405    97.207
3780.67     72.090    92.980
3835.67     71.769    87.854
3891.46     71.378    82.087
3948.06     70.810    75.648
4005.49     70.049    69.448
4063.75     69.188    64.169
4122.86     68.299    59.052
4182.82     67.386    54.667
4243.66     66.440    49.810
4305.39     65.455    45.904
4368.01     64.436    41.185
4431.55     63.382    37.584
4496.01     62.263    32.520
4561.40     60.992    28.772
4627.75     59.552    24.360
4695.06     58.012    22.174
4763.35     56.396    20.268
4832.64     54.898    20.842
4902.93     53.600    20.590
4974.24     52.353    19.990
5046.60     50.998    17.745
5120.00     49.344    15.071
5194.47     47.267    12.585
5270.03     44.725    11.835
5346.68     41.713    14.208
5424.45     38.120    21.343
5503.35     34.081    40.446
5583.40     31.761    76.929
5664.61     33.289   110.345
5747.01     35.592   125.952
5830.60     37.349   135.071
5915.41     38.582   140.051
6001.45     39.593   147.165
6088.74     40.898   152.470
6177.30     42.495   156.431
6267.15     44.081   154.780
6358.31     45.259   150.771
6450.80     45.898   145.073
6544.62     46.297   140.833
6639.82     46.540   135.822
6736.40     46.609   131.259
6834.38     46.526   126.458
6933.79     46.235   121.630
7034.64     45.647   117.845
7136.96     44.888   116.225
7240.77     44.356   118.208
7346.09     44.389   119.792
7452.94     44.824   119.469
7561.35     45.132   113.904
7671.33     45.055   108.366
7782.91     44.716   100.227
7896.12     44.016    93.130
8010.97     42.886    83.470
8127.49     41.041    74.538
8245.71     37.745    67.733
8365.65     33.821    76.297
8487.33     31.162    96.168
8610.78     30.382   119.267
8736.03     30.737   138.316
8863.09     31.898   154.241
8992.01     33.508   164.569
9122.80     35.173   170.473
9255.50     36.772   173.465
9390.12     38.299   173.196
9526.70     39.672   170.957
9665.27     40.652   164.955
9805.86     41.060   160.687
9948.49     41.298   157.612
10093.2     42.027   158.322
10240.0     43.191   152.932
10388.9     44.328   146.096
10540.1     44.819   128.867
10693.4     43.268   116.030
10848.9     41.412   116.215
11006.7     41.754   122.609
11166.8     42.847   115.477
11329.2     42.936   103.744
11494.0     42.123    91.050
11661.2     40.733    80.822
11830.8     38.613    72.407
12002.9     35.948    71.005
12177.5     33.570    78.488
12354.6     32.355    90.950
12534.3     32.548   103.313
12716.6     33.527   107.304
12901.6     34.354   106.670
13089.2     34.664    99.866
13279.6     34.300    94.953
13472.8     33.291    88.595
13668.8     32.218    91.255
13867.6     31.625    91.049
14069.3     31.356    94.751
14273.9     31.199    92.736
14481.5     31.172    93.818
14692.2     31.334    88.202
14905.9     31.000    79.678
15122.7     29.011    68.256
15342.7     26.093    70.906
15565.8     24.388    82.049
15792.2     23.999    91.871
16021.9     23.747    97.482
16255.0     23.409   102.483
16491.4     23.370   109.090
16731.3     23.541   110.615
16974.7     23.132   112.882
17221.6     22.134   117.502
17472.1     22.513   133.545
17726.2     24.024   134.588
17984.0     24.570   137.102
18245.6     24.510   137.521
18511.0     25.848   150.888
18780.2     28.046   147.531
19053.4     30.078   145.983
19330.5     31.653   132.506
19611.7     32.769   123.188
19897.0     33.111   106.557
20186.4     32.669   106.891
20480.0     32.225   107.227
20777.9     31.781   107.566
21080.1     31.337   107.908
21386.7     30.892   108.252
21697.8     30.446   108.598
22013.4     30.000   108.947
