Freq[Hz]     dBSPL  Phase[Deg]
5.00000     -6.374  -131.592
5.07273     -5.684  -119.632
5.14651     -4.992  -107.520
5.22137     -4.300   -95.255
5.29732     -3.605   -82.832
5.37437     -2.910   -70.249
5.45254     -2.214   -57.504
5.53185     -1.517   -44.593
5.61231     -0.819   -31.514
5.69394     -0.120   -18.264
5.77676      0.579    -4.839
5.86079      1.279     8.763
5.94604      1.980    22.546
6.03252      2.681    36.512
6.12027      3.383    50.665
6.20929      4.085    65.007
6.29961      4.787    79.543
6.39124      5.490    94.276
6.48420      6.193   109.208
6.57851      6.896   124.343
6.67420      7.599   139.684
6.77128      8.303   155.236
6.86977      9.006   171.001
6.96969      9.710  -173.017
7.07107     10.414  -156.815
7.17392     11.118  -140.389
7.27827     11.821  -123.735
7.38413     12.525  -106.849
7.49154     13.228   -89.728
7.60050     13.932   -72.368
7.71105     14.635   -54.766
7.82321     15.338   -36.916
7.93701     16.041   -18.816
8.05245     16.744    -0.462
8.16958     17.446    18.152
8.28841     18.148    37.028
8.40896     18.850    56.171
8.53128     19.552    75.585
8.65537     20.253    95.275
8.78126     20.954   115.244
8.90899     21.655   135.497
9.03857     22.355   156.039
9.17004     23.055   176.874
9.30342     23.754  -161.994
9.43874     24.453  -140.559
9.57603     25.151  -118.818
9.71532     25.849   -96.765
9.85663     26.547   -74.396
10.0000     27.244   -51.705
10.1455     27.735   153.007
10.2930     28.174   171.139
10.4427     28.618  -127.635
10.5946     29.129  -110.371
10.7487     29.703   -76.673
10.9051     30.357   -60.541
11.0637     31.056   -38.719
11.2246     31.796   -23.920
11.3879     32.563    -8.752
11.5535     33.354     4.851
11.7216     34.161    15.699
11.8921     34.972    28.223
12.0650     35.790    36.066
12.2405     36.603    47.668
12.4186     37.416    53.307
12.5992     38.219    64.133
12.7825     39.017    68.104
12.9684     39.805    78.291
13.1570     40.589    80.959
13.3484     41.360    90.315
13.5426     42.129    92.834
13.7395     42.878   100.459
13.9394     43.627   103.354
14.1421     44.365   109.542
14.3478     45.098   112.692
14.5565     45.823   117.679
14.7683     46.540   121.002
14.9831     47.249   124.988
15.2010     47.953   128.464
15.4221     48.653   131.610
15.6464     49.346   135.177
15.8740     50.034   137.575
16.1049     50.716   141.209
16.3392     51.396   142.972
16.5768     52.069   146.662
16.8179     52.741   147.877
17.0626     53.410   151.560
17.3107     54.071   152.250
17.5625     54.731   155.888
17.8180     55.391   156.465
18.0771     56.048   159.516
18.3401     56.703   160.264
18.6068     57.356   162.739
18.8775     58.007   163.627
19.1521     58.655   165.567
19.4306     59.302   166.589
19.7133     59.951   168.055
20.0000     60.599   169.140
20.2909     61.247   170.132
20.5860     61.895   171.294
20.8855     62.544   171.854
21.1893     63.193   173.025
21.4975     63.840   173.144
21.8102     64.487   174.323
22.1274     65.138   174.069
22.4492     65.790   175.200
22.7758     66.440   174.514
23.1071     67.092   175.532
23.4432     67.740   174.596
23.7841     68.389   175.213
24.1301     69.036   174.220
24.4811     69.680   174.318
24.8372     70.322   173.265
25.1984     70.958   172.842
25.5649     71.590   171.649
25.9368     72.208   170.702
26.3141     72.815   169.395
26.6968     73.411   167.924
27.0851     73.991   166.340
27.4791     74.548   164.365
27.8788     75.078   162.788
28.2843     75.582   160.473
28.6957     76.053   158.756
29.1131     76.499   155.987
29.5365     76.897   154.276
29.9661     77.271   151.544
30.4020     77.646   150.059
30.8442     77.985   147.385
31.2929     78.324   145.961
31.7480     78.648   143.294
32.2098     78.932   141.528
32.6783     79.224   139.052
33.1536     79.513   137.110
33.6359     79.768   134.743
34.1251     79.991   132.849
34.6215     80.206   130.842
35.1250     80.405   128.848
35.6359     80.571   126.942
36.1543     80.736   125.081
36.6802     80.907   123.587
37.2137     81.068   121.714
37.7550     81.222   120.489
38.3041     81.385   118.639
38.8613     81.543   117.395
39.4265     81.697   115.446
40.0000     81.854   114.595
40.5818     82.004   112.675
41.1721     82.152   111.775
41.7710     82.304   110.104
42.3785     82.449   109.162
42.9949     82.592   107.627
43.6203     82.741   106.588
44.2548     82.892   105.171
44.8985     83.042   104.047
45.5515     83.194   102.788
46.2141     83.348   101.616
46.8863     83.502   100.456
47.5683     83.656    99.177
48.2602     83.815    98.137
48.9621     83.977    96.792
49.6743     84.142    95.800
50.3968     84.311    94.288
51.1299     84.480    93.254
51.8736     84.633    91.557
52.6281     84.783    90.664
53.3936     84.943    89.044
54.1702     85.110    88.116
54.9581     85.279    86.469
55.7575     85.448    85.371
56.5685     85.618    83.733
57.3914     85.789    82.432
58.2261     85.955    80.764
59.0730     86.112    79.278
59.9323     86.261    77.625
60.8040     86.413    76.053
61.6884     86.566    74.428
62.5857     86.710    72.680
63.4960     86.847    71.046
64.4196     86.978    69.198
65.3566     87.107    67.612
66.3073     87.231    65.608
67.2717     87.345    63.995
68.2502     87.452    61.889
69.2429     87.549    60.312
70.2501     87.636    58.119
71.2719     87.718    56.526
72.3086     87.790    54.375
73.3603     87.853    52.717
74.4274     87.912    50.678
75.5099     87.965    48.993
76.6083     88.007    47.014
77.7226     88.025    45.233
78.8531     88.029    43.498
80.0000     88.059    42.015
81.1636     88.109    40.403
82.3442     88.150    38.640
83.5419     88.183    36.990
84.7570     88.207    35.221
85.9899     88.220    33.697
87.2406     88.231    31.991
88.5096     88.259    30.658
89.7970     88.299    28.842
91.1031     88.325    27.426
92.4282     88.344    25.584
93.7726     88.364    24.235
95.1366     88.385    22.439
96.5204     88.409    20.998
97.9243     88.427    19.167
99.3486     88.429    17.672
100.794     88.420    16.000
102.260     88.401    14.667
103.747     88.415    13.519
105.256     88.511    12.337
106.787     88.620    10.590
108.340     88.672     8.568
109.916     88.698     6.671
111.515     88.709     4.640
113.137     88.700     2.821
114.783     88.679     0.920
116.452     88.659    -0.610
118.146     88.650    -2.401
119.865     88.648    -3.892
121.608     88.643    -5.762
123.377     88.640    -7.241
125.171     88.625    -9.109
126.992     88.600   -10.455
128.839     88.634   -11.932
130.713     88.707   -13.657
132.615     88.723   -15.918
134.543     88.691   -17.865
136.500     88.657   -19.752
138.486     88.622   -21.525
140.500     88.584   -23.278
142.544     88.549   -24.916
144.617     88.539   -26.447
146.721     88.547   -28.239
148.855     88.530   -30.066
151.020     88.488   -31.893
153.217     88.474   -33.334
155.445     88.496   -35.184
157.706     88.499   -37.022
160.000     88.473   -39.086
162.327     88.447   -40.766
164.688     88.423   -42.756
167.084     88.393   -44.507
169.514     88.353   -46.391
171.980     88.323   -47.997
174.481     88.306   -49.731
177.019     88.305   -51.348
179.594     88.312   -53.146
182.206     88.317   -54.941
184.856     88.324   -56.728
187.545     88.356   -58.556
190.273     88.386   -60.531
193.041     88.400   -62.559
195.849     88.440   -64.445
198.697     88.502   -66.635
201.587     88.562   -68.972
204.520     88.585   -71.724
207.494     88.568   -74.247
210.512     88.538   -76.894
213.574     88.489   -79.266
216.681     88.433   -81.696
219.833     88.390   -83.883
223.030     88.337   -86.219
226.274     88.302   -88.234
229.565     88.290   -90.491
232.905     88.272   -92.694
236.292     88.259   -94.926
239.729     88.267   -97.130
243.216     88.290   -99.528
246.754     88.297  -102.080
250.343     88.293  -104.573
253.984     88.295  -107.182
257.678     88.275  -109.792
261.426     88.253  -112.305
265.229     88.257  -114.772
269.087     88.250  -117.496
273.001     88.233  -120.001
276.972     88.229  -122.620
281.000     88.239  -125.108
285.088     88.257  -127.889
289.234     88.266  -130.606
293.441     88.270  -133.452
297.709     88.273  -136.195
302.040     88.280  -139.019
306.433     88.299  -141.837
310.890     88.308  -144.837
315.412     88.306  -147.752
320.000     88.310  -150.656
324.655     88.319  -153.587
329.377     88.330  -156.519
334.168     88.347  -159.544
339.028     88.362  -162.531
343.959     88.387  -165.605
348.962     88.412  -168.730
354.038     88.433  -171.970
359.188     88.450  -175.191
364.412     88.457  -178.622
369.713     88.436   178.138
375.090     88.425   174.881
380.546     88.415   171.694
386.081     88.402   168.432
391.697     88.389   165.242
397.394     88.377   162.004
403.175     88.361   158.802
409.039     88.341   155.572
414.989     88.327   152.431
421.025     88.311   149.246
427.149     88.294   146.081
433.362     88.278   142.910
439.665     88.257   139.756
446.060     88.240   136.633
452.548     88.228   133.565
459.131     88.215   130.422
465.809     88.203   127.353
472.584     88.201   124.232
479.458     88.188   121.082
486.432     88.181   118.024
493.507     88.186   114.859
500.686     88.188   111.625
507.968     88.179   108.047
515.357     88.086   104.604
522.853     87.992   101.559
530.458     87.908    98.588
538.174     87.830    95.764
546.002     87.760    92.999
553.943     87.697    90.291
562.001     87.639    87.674
570.175     87.586    85.089
578.469     87.549    82.651
586.883     87.543    80.157
595.419     87.565    77.550
604.080     87.590    74.594
612.866     87.576    71.339
621.780     87.463    68.130
630.824     87.356    65.595
640.000     87.261    62.885
649.309     87.167    60.549
658.753     87.078    58.126
668.335     87.001    55.987
678.056     86.932    53.663
687.919     86.865    51.556
697.925     86.810    49.380
708.077     86.752    47.340
718.376     86.702    45.354
728.825     86.676    43.394
739.426     86.650    41.415
750.181     86.630    39.466
761.093     86.618    37.561
772.163     86.615    35.628
783.394     86.612    33.735
794.789     86.626    31.797
806.349     86.647    29.959
818.078     86.672    27.932
829.977     86.699    26.184
842.050     86.744    24.116
854.298     86.782    22.520
866.724     86.909    20.474
879.330     86.996    18.214
892.120     87.083    15.868
905.097     87.154    13.489
918.262     87.221    10.958
931.618     87.277     8.527
945.169     87.330     6.025
958.917     87.384     3.572
972.864     87.428     1.010
987.015     87.480    -1.525
1001.37     87.530    -4.152
1015.94     87.568    -6.906
1030.71     87.580    -9.618
1045.71     87.580   -12.236
1060.92     87.592   -14.713
1076.35     87.610   -17.367
1092.00     87.636   -19.749
1107.89     87.672   -22.385
1124.00     87.709   -24.902
1140.35     87.757   -27.793
1156.94     87.803   -30.403
1173.77     87.842   -33.474
1190.84     87.898   -36.457
1208.16     87.908   -39.901
1225.73     87.875   -43.147
1243.56     87.810   -46.352
1261.65     87.748   -49.308
1280.00     87.674   -52.241
1298.62     87.615   -55.121
1317.51     87.556   -57.949
1336.67     87.495   -60.863
1356.11     87.422   -63.611
1375.84     87.362   -66.433
1395.85     87.308   -69.001
1416.15     87.260   -71.920
1436.75     87.207   -74.552
1457.65     87.148   -77.443
1478.85     87.093   -79.895
1500.36     87.057   -82.677
1522.19     87.062   -84.913
1544.33     87.097   -87.894
1566.79     87.122   -90.637
1589.58     87.160   -93.760
1612.70     87.202   -96.789
1636.16     87.243  -100.180
1659.95     87.280  -103.490
1684.10     87.312  -107.033
1708.60     87.353  -110.573
1733.45     87.398  -114.263
1758.66     87.451  -118.240
1784.24     87.497  -122.402
1810.19     87.504  -127.012
1836.52     87.464  -131.493
1863.24     87.371  -136.246
1890.34     87.271  -140.353
1917.83     87.165  -144.927
1945.73     87.065  -148.874
1974.03     86.962  -153.516
2002.74     86.862  -157.467
2031.87     86.761  -162.149
2061.43     86.666  -166.309
2091.41     86.561  -171.154
2121.83     86.429  -175.685
2152.69     86.254   179.460
2184.01     86.066   175.086
2215.77     85.874   170.641
2248.00     85.685   166.416
2280.70     85.499   162.247
2313.87     85.307   158.108
2347.53     85.114   154.350
2381.68     84.918   150.651
2416.32     84.789   147.940
2451.46     84.792   144.838
2487.12     84.921   141.902
2523.30     85.065   137.513
2560.00     85.239   133.694
2597.24     85.398   128.418
2635.01     85.597   123.942
2673.34     85.779   117.836
2712.23     85.946   112.000
2751.68     85.960   104.875
2791.70     85.886    98.866
2832.31     85.768    92.607
2873.50     85.651    87.109
2915.30     85.520    81.407
2957.70     85.388    76.092
3000.72     85.251    70.870
3044.37     85.117    65.717
3088.65     84.992    60.920
3133.58     84.859    55.772
3179.16     84.733    51.330
3225.40     84.590    46.201
3272.31     84.458    42.204
3319.91     84.303    37.191
3368.20     84.170    33.795
3417.19     84.023    28.964
3466.89     83.910    26.063
3517.32     83.781    21.688
3568.48     83.686    19.143
3620.39     83.632    15.577
3673.05     83.664    13.100
3726.47     83.714     9.427
3780.67     83.770     6.401
3835.67     83.817     2.864
3891.46     83.888    -0.137
3948.06     84.012    -3.237
4005.49     84.190    -6.636
4063.75     84.394   -10.147
4122.86     84.598   -14.570
4182.82     84.784   -18.727
4243.66     84.883   -24.332
4305.39     84.862   -28.578
4368.01     84.779   -33.724
4431.55     84.705   -36.671
4496.01     84.638   -41.300
4561.40     84.625   -43.436
4627.75     84.654   -47.826
4695.06     84.698   -50.355
4763.35     84.741   -54.701
4832.64     84.795   -57.499
4902.93     84.863   -61.649
4974.24     84.942   -64.878
5046.60     85.025   -69.105
5120.00     85.088   -73.038
5194.47     85.109   -77.354
5270.03     85.094   -81.610
5346.68     85.065   -85.500
5424.45     85.008   -90.035
5503.35     84.894   -93.598
5583.40     84.738   -97.928
5664.61     84.592  -100.199
5747.01     84.492  -103.813
5830.60     84.488  -105.103
5915.41     84.523  -109.389
6001.45     84.563  -111.036
6088.74     84.629  -115.598
6177.30     84.714  -117.683
6267.15     84.798  -122.225
6358.31     84.867  -124.922
6450.80     84.915  -129.434
6544.62     84.961  -132.478
6639.82     85.027  -136.631
6736.40     85.117  -140.183
6834.38     85.211  -144.549
6933.79     85.259  -149.260
7034.64     85.216  -153.751
7136.96     85.106  -158.509
7240.77     85.004  -161.708
7346.09     84.957  -166.174
7452.94     84.950  -168.917
7561.35     84.951  -174.161
7671.33     84.950  -176.838
7782.91     84.938   177.047
7896.12     84.870   174.337
8010.97     84.735   168.101
8127.49     84.593   165.844
8245.71     84.478   160.629
8365.65     84.385   158.327
8487.33     84.318   153.712
8610.78     84.284   151.130
8736.03     84.287   146.994
8863.09     84.345   143.840
8992.01     84.429   139.650
9122.80     84.507   135.394
9255.50     84.584   131.360
9390.12     84.709   126.487
9526.70     84.897   122.355
9665.27     85.073   115.443
9805.86     85.155   110.242
9948.49     85.115   101.685
10093.2     84.917    96.808
10240.0     84.623    88.633
10388.9     84.428    85.958
10540.1     84.261    77.226
10693.4     83.949    73.458
10848.9     83.552    65.778
11006.7     83.158    62.902
11166.8     82.811    57.002
11329.2     82.548    54.273
11494.0     82.312    48.932
11661.2     82.071    45.495
11830.8     81.852    41.218
12002.9     81.728    37.731
12177.5     81.740    34.010
12354.6     81.769    28.179
12534.3     81.645    23.502
12716.6     81.404    17.020
12901.6     81.224    14.825
13089.2     81.168     8.427
13279.6     81.210     6.910
13472.8     81.252    -1.494
13668.8     81.296    -2.462
13867.6     81.399   -11.709
14069.3     81.604   -13.305
14273.9     81.749   -23.590
14481.5     81.821   -26.712
14692.2     81.953   -35.905
14905.9     82.181   -40.249
15122.7     82.393   -50.291
15342.7     82.430   -57.332
15565.8     82.344   -65.805
15792.2     82.472   -71.524
16021.9     83.031   -78.642
16255.0     83.591   -90.937
16491.4     83.634  -101.907
16731.3     83.458  -115.281
16974.7     83.484  -121.892
17221.6     83.527  -137.814
17472.1     83.627  -143.137
17726.2     83.829  -163.420
17984.0     83.975  -168.978
18245.6     83.810   163.947
18511.0     83.462   159.808
18780.2     83.321   132.499
19053.4     83.194   125.576
19330.5     83.058    91.892
19611.7     82.945    79.216
19897.0     82.694    14.447
20186.4     82.695     5.832
20480.0     82.696    -2.842
20777.9     82.698   -11.574
21080.1     82.700   -20.364
21386.7     82.701   -29.215
21697.8     82.703   -38.125
22013.4     82.705   -47.097
