Freq[Hz]     dBSPL  Phase[Deg]
5.00000     -5.605    34.270
5.07273     -4.913    40.329
5.14651     -4.222    46.463
5.22137     -3.534    52.675
5.29732     -2.848    58.965
5.37437     -2.164    65.335
5.45254     -1.482    71.785
5.53185     -0.802    78.316
5.61231     -0.124    84.930
5.69394      0.551    91.628
5.77676      1.225    98.410
5.86079      1.897   105.278
5.94604      2.568   112.233
6.03252      3.236   119.275
6.12027      3.903   126.407
6.20929      4.568   133.629
6.29961      5.232   140.943
6.39124      5.894   148.349
6.48420      6.555   155.849
6.57851      7.214   163.444
6.67420      7.872   171.135
6.77128      8.529   178.923
6.86977      9.185  -173.190
6.96969      9.839  -165.203
7.07107     10.493  -157.115
7.17392     11.146  -148.924
7.27827     11.798  -140.629
7.38413     12.449  -132.228
7.49154     13.100  -123.720
7.60050     13.750  -115.103
7.71105     14.401  -106.376
7.82321     15.050   -97.536
7.93701     15.700   -88.583
8.05245     16.350   -79.513
8.16958     17.001   -70.326
8.28841     17.651   -61.018
8.40896     18.302   -51.589
8.53128     18.954   -42.035
8.65537     19.607   -32.354
8.78126     20.260   -22.543
8.90899     20.915   -12.601
9.03857     21.571    -2.524
9.17004     22.228     7.691
9.30342     22.887    18.046
9.43874     23.547    28.545
9.57603     24.209    39.192
9.71532     24.873    49.988
9.85663     25.539    60.938
10.0000     26.206    72.046
10.1455     26.740   -89.502
10.2930     27.097   -93.458
10.4427     27.540   -40.125
10.5946     28.039   -25.725
10.7487     28.614     3.470
10.9051     29.259    17.050
11.0637     29.959    35.806
11.2246     30.696    48.296
11.3879     31.463    61.178
11.5535     32.254    72.672
11.7216     33.060    81.721
11.8921     33.874    92.296
12.0650     34.691    98.670
12.2405     35.507   108.465
12.4186     36.318   112.871
12.5992     37.125   122.009
12.7825     37.922   124.927
12.9684     38.714   133.532
13.1570     39.496   135.287
13.3484     40.272   143.177
13.5426     41.039   144.817
13.7395     41.790   151.162
13.9394     42.537   153.179
14.1421     43.278   158.243
14.3478     44.011   160.518
14.5565     44.738   164.504
14.7683     45.455   166.964
14.9831     46.164   170.052
15.2010     46.869   172.680
15.4221     47.569   175.014
15.6464     48.263   177.750
15.8740     48.950   179.409
16.1049     49.633  -177.772
16.3392     50.312  -176.683
16.5768     50.987  -173.787
16.8179     51.658  -173.197
17.0626     52.327  -170.285
17.3107     52.989  -170.173
17.5625     53.648  -167.289
17.8180     54.307  -167.257
18.0771     54.964  -164.904
18.3401     55.619  -164.709
18.6068     56.272  -162.882
18.8775     56.922  -162.542
19.1521     57.569  -161.204
19.4306     58.216  -160.727
19.7133     58.865  -159.828
20.0000     59.512  -159.285
20.2909     60.159  -158.824
20.5860     60.806  -158.199
20.8855     61.454  -158.138
21.1893     62.102  -157.493
21.4975     62.748  -157.844
21.8102     63.395  -157.188
22.1274     64.044  -157.889
22.4492     64.694  -157.274
22.7758     65.344  -158.379
23.1071     65.995  -157.870
23.4432     66.641  -159.217
23.7841     67.288  -159.089
24.1301     67.933  -160.488
24.4811     68.576  -160.850
24.8372     69.216  -162.311
25.1984     69.851  -163.172
25.5649     70.482  -164.773
25.9368     71.098  -166.144
26.3141     71.702  -167.854
26.6968     72.296  -169.724
27.0851     72.874  -171.709
27.4791     73.430  -174.071
27.8788     73.958  -176.052
28.2843     74.459  -178.736
28.6957     74.928   179.151
29.1131     75.372   176.028
29.5365     75.767   173.922
29.9661     76.139   170.846
30.4020     76.511   168.968
30.8442     76.847   165.966
31.2929     77.185   164.160
31.7480     77.506   161.158
32.2098     77.787   159.021
32.6783     78.076   156.213
33.1536     78.362   153.918
33.6359     78.614   151.219
34.1251     78.834   148.981
34.6215     79.046   146.641
35.1250     79.242   144.315
35.6359     79.404   142.075
36.1543     79.566   139.894
36.6802     79.734   138.070
37.2137     79.891   135.886
37.7550     80.042   134.330
38.3041     80.201   132.181
38.8613     80.356   130.602
39.4265     80.505   128.359
40.0000     80.658   127.183
40.5818     80.804   124.969
41.1721     80.947   123.750
41.7710     81.096   121.793
42.3785     81.236   120.533
42.9949     81.375   118.710
43.6203     81.518   117.367
44.2548     81.665   115.666
44.8985     81.810   114.243
45.5515     81.957   112.696
46.2141     82.106   111.235
46.8863     82.255   109.786
47.5683     82.403   108.225
48.2602     82.556   106.895
48.9621     82.713   105.279
49.6743     82.872   103.999
50.3968     83.035   102.221
51.1299     83.198   100.897
51.8736     83.344    98.936
52.6281     83.487    97.762
53.3936     83.641    95.889
54.1702     83.802    94.678
54.9581     83.963    92.778
55.7575     84.125    91.406
56.5685     84.288    89.513
57.3914     84.452    87.941
58.2261     84.610    86.020
59.0730     84.759    84.273
59.9323     84.900    82.365
60.8040     85.044    80.538
61.6884     85.188    78.659
62.5857     85.323    76.659
63.4960     85.450    74.771
64.4196     85.572    72.682
65.3566     85.691    70.842
66.3073     85.806    68.603
67.2717     85.910    66.738
68.2502     86.006    64.401
69.2429     86.093    62.572
70.2501     86.171    60.155
71.2719     86.241    58.304
72.3086     86.301    55.929
73.3603     86.353    54.032
74.4274     86.400    51.765
75.5099     86.440    49.845
76.6083     86.470    47.642
77.7226     86.475    45.628
78.8531     86.466    43.669
80.0000     86.482    41.961
81.1636     86.518    40.128
82.3442     86.546    38.147
83.5419     86.564    36.273
84.7570     86.572    34.293
85.9899     86.571    32.549
87.2406     86.566    30.632
88.5096     86.578    29.082
89.7970     86.601    27.067
91.1031     86.610    25.431
92.4282     86.612    23.398
93.7726     86.614    21.839
95.1366     86.617    19.848
96.5204     86.623    18.202
97.9243     86.622    16.181
99.3486     86.605    14.484
100.794     86.575    12.626
102.260     86.536    11.102
103.747     86.529     9.771
105.256     86.604     8.402
106.787     86.691     6.472
108.340     86.720     4.273
109.916     86.724     2.199
111.515     86.712    -0.002
113.137     86.679    -1.996
114.783     86.633    -4.055
116.452     86.589    -5.756
118.146     86.555    -7.698
119.865     86.526    -9.357
121.608     86.496   -11.372
123.377     86.465   -13.015
125.171     86.422   -15.023
126.992     86.369   -16.517
128.839     86.374   -18.130
130.713     86.418   -19.997
132.615     86.403   -22.385
134.543     86.341   -24.465
136.500     86.276   -26.477
138.486     86.209   -28.373
140.500     86.137   -30.243
142.544     86.069   -31.994
144.617     86.025   -33.635
146.721     85.999   -35.529
148.855     85.946   -37.460
151.020     85.869   -39.378
153.217     85.818   -40.917
155.445     85.802   -42.845
157.706     85.767   -44.770
160.000     85.703   -46.913
162.327     85.636   -48.671
164.688     85.573   -50.717
167.084     85.501   -52.542
169.514     85.419   -54.474
171.980     85.347   -56.141
174.481     85.286   -57.924
177.019     85.239   -59.585
179.594     85.201   -61.414
182.206     85.160   -63.242
184.856     85.120   -65.052
187.545     85.104   -66.895
190.273     85.085   -68.884
193.041     85.051   -70.914
195.849     85.041   -72.801
198.697     85.054   -74.978
201.587     85.064   -77.324
204.520     85.035   -80.063
207.494     84.965   -82.587
210.512     84.881   -85.210
213.574     84.777   -87.580
216.681     84.665   -89.980
219.833     84.563   -92.153
223.030     84.452   -94.446
226.274     84.356   -96.429
229.565     84.284   -98.629
232.905     84.205  -100.787
236.292     84.129  -102.960
239.729     84.075  -105.108
243.216     84.035  -107.449
246.754     83.976  -109.946
250.343     83.904  -112.374
253.984     83.839  -114.902
257.678     83.752  -117.435
261.426     83.662  -119.852
265.229     83.600  -122.256
269.087     83.525  -124.906
273.001     83.436  -127.359
276.972     83.360  -129.880
281.000     83.298  -132.297
285.088     83.244  -134.976
289.234     83.180  -137.622
293.441     83.111  -140.357
297.709     83.043  -143.019
302.040     82.979  -145.726
306.433     82.933  -148.445
310.890     82.879  -151.366
315.412     82.815  -154.238
320.000     82.757  -157.117
324.655     82.704  -160.050
329.377     82.652  -163.007
334.168     82.604  -166.069
339.028     82.554  -169.120
343.959     82.512  -172.266
348.962     82.469  -175.480
354.038     82.422  -178.806
359.188     82.369   177.863
364.412     82.305   174.353
369.713     82.219   171.012
375.090     82.144   167.651
380.546     82.072   164.323
386.081     81.997   160.928
391.697     81.926   157.576
397.394     81.857   154.169
403.175     81.786   150.769
409.039     81.712   147.337
414.989     81.647   143.966
421.025     81.581   140.542
427.149     81.516   137.118
433.362     81.452   133.673
439.665     81.385   130.249
446.060     81.325   126.841
452.548     81.273   123.478
459.131     81.222   120.034
465.809     81.176   116.647
472.584     81.141   113.202
479.458     81.097   109.716
486.432     81.063   106.322
493.507     81.040   102.800
500.686     81.020    99.261
507.968     80.995    95.323
515.357     80.889    91.538
522.853     80.789    88.112
530.458     80.698    84.755
538.174     80.618    81.520
546.002     80.549    78.332
553.943     80.488    75.172
562.001     80.433    72.100
570.175     80.384    69.054
578.469     80.356    66.139
586.883     80.361    63.141
595.419     80.393    59.990
604.080     80.427    56.496
612.866     80.419    52.652
621.780     80.310    48.922
630.824     80.213    45.811
640.000     80.126    42.545
649.309     80.041    39.583
658.753     79.958    36.593
668.335     79.886    33.808
678.056     79.822    30.889
687.919     79.755    28.121
697.925     79.704    25.343
708.077     79.649    22.581
718.376     79.586    19.909
728.825     79.545    17.279
739.426     79.503    14.660
750.181     79.466    12.067
761.093     79.436     9.511
772.163     79.410     6.945
783.394     79.383     4.394
794.789     79.370     1.838
806.349     79.359    -0.676
818.078     79.349    -3.300
829.977     79.336    -5.723
842.050     79.336    -8.350
854.298     79.328   -10.610
866.724     79.404   -13.183
879.330     79.433   -16.084
892.120     79.458   -18.919
905.097     79.464   -21.853
918.262     79.467   -24.817
931.618     79.458   -27.748
945.169     79.443   -30.676
958.917     79.426   -33.584
972.864     79.396   -36.553
987.015     79.370   -39.481
1001.37     79.340   -42.484
1015.94     79.295   -45.559
1030.71     79.221   -48.609
1045.71     79.133   -51.457
1060.92     79.054   -54.215
1076.35     78.979   -56.998
1092.00     78.912   -59.597
1107.89     78.853   -62.242
1124.00     78.796   -64.904
1140.35     78.749   -67.687
1156.94     78.702   -70.313
1173.77     78.647   -73.158
1190.84     78.610   -75.899
1208.16     78.560   -78.812
1225.73     78.504   -81.715
1243.56     78.429   -84.619
1261.65     78.359   -87.442
1280.00     78.278   -90.255
1298.62     78.212   -93.075
1317.51     78.146   -95.883
1336.67     78.079   -98.770
1356.11     78.000  -101.579
1375.84     77.934  -104.398
1395.85     77.875  -107.107
1416.15     77.823  -110.049
1436.75     77.767  -112.914
1457.65     77.707  -115.881
1478.85     77.652  -118.721
1500.36     77.608  -121.790
1522.19     77.570  -124.667
1544.33     77.531  -127.927
1566.79     77.474  -131.011
1589.58     77.428  -134.194
1612.70     77.384  -137.357
1636.16     77.339  -140.688
1659.95     77.289  -143.963
1684.10     77.234  -147.338
1708.60     77.186  -150.669
1733.45     77.142  -154.062
1758.66     77.102  -157.594
1784.24     77.057  -161.191
1810.19     76.997  -164.919
1836.52     76.932  -168.564
1863.24     76.850  -172.429
1890.34     76.766  -176.003
1917.83     76.676  -179.860
1945.73     76.587   176.601
1974.03     76.494   172.688
2002.74     76.396   169.174
2031.87     76.294   165.302
2061.43     76.188   161.812
2091.41     76.081   158.139
2121.83     75.992   154.810
2152.69     75.924   151.254
2184.01     75.870   147.793
2215.77     75.818   144.152
2248.00     75.768   140.554
2280.70     75.721   136.919
2313.87     75.673   133.247
2347.53     75.628   129.709
2381.68     75.586   126.014
2416.32     75.545   122.669
2451.46     75.523   119.126
2487.12     75.532   116.122
2523.30     75.586   112.545
2560.00     75.674   109.536
2597.24     75.807   105.594
2635.01     75.970   102.196
2673.34     76.164    97.593
2712.23     76.343    93.142
2751.68     76.449    87.697
2791.70     76.500    82.916
2832.31     76.539    77.739
2873.50     76.576    72.904
2915.30     76.609    67.661
2957.70     76.636    62.313
3000.72     76.609    56.428
3044.37     76.448    50.286
3088.65     76.160    44.851
3133.58     75.827    39.842
3179.16     75.491    35.804
3225.40     75.145    31.673
3272.31     74.811    28.851
3319.91     74.527    25.801
3368.20     74.354    23.950
3417.19     74.221    20.695
3466.89     74.093    18.642
3517.32     73.950    15.521
3568.48     73.810    13.935
3620.39     73.753    12.015
3673.05     73.864    10.884
3726.47     74.069     8.345
3780.67     74.298     5.676
3835.67     74.527     2.013
3891.46     74.728    -2.023
3948.06     74.846    -6.628
4005.49     74.876   -11.294
4063.75     74.869   -15.587
4122.86     74.858   -20.304
4182.82     74.821   -24.819
4243.66     74.676   -30.448
4305.39     74.365   -34.862
4368.01     73.966   -39.385
4431.55     73.566   -41.770
4496.01     73.188   -44.755
4561.40     72.932   -45.402
4627.75     72.799   -47.696
4695.06     72.701   -48.808
4763.35     72.612   -50.977
4832.64     72.634   -51.629
4902.93     72.819   -53.632
4974.24     73.088   -55.862
5046.60     73.367   -59.789
5120.00     73.568   -64.419
5194.47     73.614   -69.825
5270.03     73.538   -75.196
5346.68     73.408   -80.479
5424.45     73.140   -86.850
5503.35     72.560   -92.447
5583.40     71.731   -96.938
5664.61     70.915   -97.829
5747.01     70.298   -97.938
5830.60     70.086   -95.842
5915.41     70.083   -97.243
6001.45     70.066   -97.583
6088.74     70.016  -100.364
6177.30     69.936  -101.182
6267.15     69.840  -103.188
6358.31     69.877  -103.156
6450.80     70.113  -105.085
6544.62     70.417  -107.437
6639.82     70.640  -111.915
6736.40     70.714  -116.388
6834.38     70.683  -121.254
6933.79     70.583  -126.194
7034.64     70.402  -131.089
7136.96     70.133  -136.654
7240.77     69.721  -141.729
7346.09     69.072  -147.544
7452.94     68.240  -150.485
7561.35     67.388  -153.379
7671.33     66.572  -152.912
7782.91     65.832  -152.947
7896.12     65.441  -148.681
8010.97     65.468  -147.968
8127.49     65.629  -146.242
8245.71     65.823  -147.814
8365.65     66.047  -147.963
8487.33     66.358  -150.472
8610.78     66.777  -153.075
8736.03     67.084  -159.144
8863.09     67.063  -165.454
8992.01     66.774  -171.973
9122.80     66.310  -177.782
9255.50     65.701   177.331
9390.12     65.005   172.850
9526.70     64.270   170.266
9665.27     63.575   167.324
9805.86     62.993   166.509
9948.49     62.490   163.008
10093.2     61.946   161.397
10240.0     61.264   155.556
10388.9     60.128   152.976
10540.1     58.542   148.667
10693.4     56.443   152.111
10848.9     54.479   161.011
11006.7     53.708   177.986
11166.8     54.135  -168.242
11329.2     55.486  -156.342
11494.0     57.182  -152.176
11661.2     58.791  -151.177
11830.8     60.209  -154.119
12002.9     61.400  -159.101
12177.5     62.305  -165.985
12354.6     62.806  -175.136
12534.3     62.788   176.798
12716.6     62.334   168.486
12901.6     61.627   165.207
13089.2     60.884   161.823
13279.6     60.355   165.026
13472.8     60.243   165.326
13668.8     60.697   170.695
13867.6     61.524   166.579
14069.3     62.115   165.256
14273.9     62.406   158.275
14481.5     62.634   157.194
14692.2     63.036   151.857
14905.9     63.572   148.809
15122.7     64.046   140.308
15342.7     64.190   132.119
15565.8     63.615   121.330
15792.2     62.169   117.221
16021.9     61.331   123.244
16255.0     62.302   128.654
16491.4     63.949   126.583
16731.3     65.183   116.070
16974.7     65.986   104.986
17221.6     65.454    88.050
17472.1     64.686    86.492
17726.2     64.807    78.088
17984.0     65.390    76.635
18245.6     65.709    58.794
18511.0     65.664    53.973
18780.2     65.476    35.643
19053.4     65.182    30.206
19330.5     64.956    10.900
19611.7     64.519     0.656
19897.0     63.297   -28.089
20186.4     63.473   -31.882
20480.0     63.648   -35.694
20777.9     63.824   -39.526
21080.1     63.999   -43.376
21386.7     64.174   -47.247
21697.8     64.348   -51.138
22013.4     64.523   -55.049
