Freq[Hz]     dBSPL  Phase[Deg]
5.00000     -4.603   -78.221
5.07273     -3.906   -71.361
5.14651     -3.211   -64.414
5.22137     -2.519   -57.378
5.29732     -1.829   -50.253
5.37437     -1.141   -43.038
5.45254     -0.456   -35.730
5.53185      0.226   -28.330
5.61231      0.907   -20.835
5.69394      1.585   -13.244
5.77676      2.261    -5.557
5.86079      2.935     2.229
5.94604      3.606    10.113
6.03252      4.276    18.098
6.12027      4.944    26.185
6.20929      5.610    34.375
6.29961      6.274    42.670
6.39124      6.936    51.070
6.48420      7.597    59.577
6.57851      8.256    68.192
6.67420      8.913    76.917
6.77128      9.569    85.753
6.86977     10.224    94.702
6.96969     10.877   103.765
7.07107     11.529   112.943
7.17392     12.180   122.238
7.27827     12.830   131.651
7.38413     13.479   141.185
7.49154     14.128   150.841
7.60050     14.775   160.621
7.71105     15.423   170.526
7.82321     16.070  -179.442
7.93701     16.717  -169.280
8.05245     17.364  -158.987
8.16958     18.011  -148.560
8.28841     18.658  -137.997
8.40896     19.306  -127.296
8.53128     19.954  -116.454
8.65537     20.603  -105.468
8.78126     21.253   -94.336
8.90899     21.905   -83.055
9.03857     22.557   -71.622
9.17004     23.211   -60.033
9.30342     23.867   -48.285
9.43874     24.524   -36.376
9.57603     25.184   -24.300
9.71532     25.845   -12.054
9.85663     26.509     0.365
10.0000     27.174    12.961
10.1455     27.724  -135.702
10.2930     28.077  -138.627
10.4427     28.520   -81.254
10.5946     29.023   -65.841
10.7487     29.597   -34.390
10.9051     30.245   -19.820
11.0637     30.944     0.419
11.2246     31.682    13.879
11.3879     32.449    27.812
11.5535     33.240    40.258
11.7216     34.047    50.079
11.8921     34.861    61.585
12.0650     35.678    68.536
12.2405     36.493    79.246
12.4186     37.305    84.089
12.5992     38.110    94.127
12.7825     38.908    97.373
12.9684     39.698   106.865
13.1570     40.482   108.863
13.3484     41.256   117.592
13.5426     42.024   119.485
13.7395     42.775   126.548
13.9394     43.523   128.863
14.1421     44.263   134.536
14.3478     44.996   137.149
14.5565     45.723   141.649
14.7683     46.440   144.478
14.9831     47.149   148.005
15.2010     47.854   151.029
15.4221     48.554   153.737
15.6464     49.248   156.889
15.8740     49.935   158.860
16.1049     50.618   162.112
16.3392     51.297   163.467
16.5768     51.971   166.813
16.8179     52.643   167.624
17.0626     53.312   170.992
17.3107     53.974   171.288
17.5625     54.634   174.637
17.8180     55.293   174.841
18.0771     55.951   177.609
18.3401     56.605   178.005
18.6068     57.258  -179.795
18.8775     57.909  -179.231
19.1521     58.557  -177.565
19.4306     59.204  -176.843
19.7133     59.852  -175.652
20.0000     60.500  -174.848
20.2909     61.147  -174.127
20.5860     61.795  -173.223
20.8855     62.444  -172.936
21.1893     63.092  -172.001
21.4975     63.739  -172.153
21.8102     64.386  -171.194
22.1274     65.036  -171.723
22.4492     65.686  -170.796
22.7758     66.336  -171.748
23.1071     66.987  -170.916
23.4432     67.635  -172.118
23.7841     68.283  -171.688
24.1301     68.929  -172.932
24.4811     69.572  -173.020
24.8372     70.212  -174.307
25.1984     70.848  -174.919
25.5649     71.479  -176.331
25.9368     72.096  -177.474
26.3141     72.702  -178.982
26.6968     73.296   179.351
27.0851     73.875   177.580
27.4791     74.431   175.404
27.8788     74.960   173.650
28.2843     75.462   171.130
28.6957     75.932   169.254
29.1131     76.377   166.275
29.5365     76.773   164.416
29.9661     77.146   161.476
30.4020     77.520   159.855
30.8442     77.857   156.968
31.2929     78.195   155.406
31.7480     78.517   152.543
32.2098     78.799   150.633
32.6783     79.090   147.973
33.1536     79.377   145.882
33.6359     79.630   143.341
34.1251     79.851   141.296
34.6215     80.064   139.129
35.1250     80.261   136.979
35.6359     80.425   134.922
36.1543     80.588   132.903
36.6802     80.757   131.270
37.2137     80.916   129.235
37.7550     81.069   127.876
38.3041     81.229   125.859
38.8613     81.385   124.490
39.4265     81.536   122.373
40.0000     81.692   121.409
40.5818     81.839   119.312
41.1721     81.984   118.304
41.7710     82.134   116.471
42.3785     82.277   115.406
42.9949     82.417   113.719
43.6203     82.563   112.559
44.2548     82.711   111.001
44.8985     82.859   109.752
45.5515     83.008   108.358
46.2141     83.158   107.056
46.8863     83.310   105.769
47.5683     83.461   104.357
48.2602     83.615   103.199
48.9621     83.775   101.722
49.6743     83.936   100.618
50.3968     84.102    98.969
51.1299     84.267    97.831
51.8736     84.416    95.992
52.6281     84.562    95.008
53.3936     84.719    93.248
54.1702     84.883    92.224
54.9581     85.047    90.441
55.7575     85.211    89.249
56.5685     85.378    87.487
57.3914     85.545    86.083
58.2261     85.706    84.297
59.0730     85.859    82.707
59.9323     86.003    80.944
60.8040     86.151    79.269
61.6884     86.299    77.540
62.5857     86.438    75.682
63.4960     86.569    73.950
64.4196     86.695    71.994
65.3566     86.818    70.316
66.3073     86.937    68.205
67.2717     87.046    66.509
68.2502     87.146    64.291
69.2429     87.238    62.636
70.2501     87.319    60.331
71.2719     87.395    58.661
72.3086     87.460    56.403
73.3603     87.517    54.669
74.4274     87.570    52.527
75.5099     87.616    50.765
76.6083     87.650    48.691
77.7226     87.661    46.830
78.8531     87.658    45.009
80.0000     87.679    43.445
81.1636     87.722    41.755
82.3442     87.756    39.910
83.5419     87.781    38.185
84.7570     87.795    36.337
85.9899     87.801    34.747
87.2406     87.803    32.954
88.5096     87.822    31.562
89.7970     87.853    29.665
91.1031     87.869    28.190
92.4282     87.879    26.272
93.7726     87.889    24.875
95.1366     87.901    23.000
96.5204     87.914    21.511
97.9243     87.922    19.614
99.3486     87.914    18.065
100.794     87.893    16.333
102.260     87.863    14.952
103.747     87.866    13.750
105.256     87.951    12.518
106.787     88.047    10.722
108.340     88.087     8.656
109.916     88.101     6.721
111.515     88.100     4.644
113.137     88.078     2.789
114.783     88.044     0.847
116.452     88.010    -0.708
118.146     87.988    -2.539
119.865     87.971    -4.049
121.608     87.953    -5.954
123.377     87.936    -7.452
125.171     87.905    -9.345
126.992     87.866   -10.701
128.839     87.885   -12.205
130.713     87.942   -13.938
132.615     87.942   -16.214
134.543     87.895   -18.167
136.500     87.843   -20.063
138.486     87.792   -21.836
140.500     87.736   -23.588
142.544     87.684   -25.222
144.617     87.656   -26.746
146.721     87.647   -28.531
148.855     87.611   -30.341
151.020     87.551   -32.159
153.217     87.517   -33.579
155.445     87.519   -35.410
157.706     87.503   -37.218
160.000     87.457   -39.261
162.327     87.410   -40.904
164.688     87.366   -42.865
167.084     87.315   -44.577
169.514     87.253   -46.425
171.980     87.202   -47.987
174.481     87.162   -49.684
177.019     87.137   -51.249
179.594     87.121   -52.994
182.206     87.102   -54.733
184.856     87.085   -56.461
187.545     87.093   -58.223
190.273     87.098   -60.130
193.041     87.087   -62.090
195.849     87.101   -63.898
198.697     87.139   -66.012
201.587     87.174   -68.280
204.520     87.171   -70.961
207.494     87.127   -73.407
210.512     87.069   -75.978
213.574     86.992   -78.278
216.681     86.908   -80.634
219.833     86.834   -82.743
223.030     86.751   -84.999
226.274     86.684   -86.930
229.565     86.641   -89.095
232.905     86.591   -91.209
236.292     86.545   -93.351
239.729     86.521   -95.466
243.216     86.511   -97.780
246.754     86.483  -100.251
250.343     86.442  -102.655
253.984     86.408  -105.169
257.678     86.352  -107.681
261.426     86.294  -110.093
265.229     86.264  -112.480
269.087     86.221  -115.131
273.001     86.164  -117.571
276.972     86.121  -120.102
281.000     86.091  -122.514
285.088     86.070  -125.212
289.234     86.039  -127.858
293.441     86.002  -130.619
297.709     85.967  -133.292
302.040     85.935  -136.046
306.433     85.917  -138.807
310.890     85.888  -141.755
315.412     85.849  -144.634
320.000     85.817  -147.513
324.655     85.790  -150.437
329.377     85.764  -153.379
334.168     85.743  -156.424
339.028     85.719  -159.446
343.959     85.705  -162.564
348.962     85.689  -165.740
354.038     85.669  -169.031
359.188     85.645  -172.317
364.412     85.609  -175.794
369.713     85.551  -179.085
375.090     85.503   177.594
380.546     85.458   174.323
386.081     85.410   170.980
391.697     85.365   167.691
397.394     85.322   164.346
403.175     85.277   161.016
409.039     85.229   157.654
414.989     85.189   154.358
421.025     85.148   151.012
427.149     85.107   147.669
433.362     85.067   144.311
439.665     85.023   140.975
446.060     84.985   137.657
452.548     84.955   134.387
459.131     84.925   131.035
465.809     84.898   127.748
472.584     84.883   124.398
479.458     84.857   121.018
486.432     84.842   117.720
493.507     84.836   114.310
500.686     84.832   110.851
507.968     84.818   107.031
515.357     84.725   103.362
522.853     84.637   100.071
530.458     84.559    96.842
538.174     84.492    93.746
546.002     84.435    90.691
553.943     84.387    87.673
562.001     84.346    84.736
570.175     84.312    81.821
578.469     84.299    79.028
586.883     84.320    76.139
595.419     84.367    73.092
604.080     84.416    69.651
612.866     84.417    65.872
621.780     84.313    62.188
630.824     84.219    59.168
640.000     84.134    55.967
649.309     84.050    53.120
658.753     83.968    50.202
668.335     83.897    47.543
678.056     83.833    44.706
687.919     83.766    42.068
697.925     83.715    39.375
708.077     83.656    36.750
718.376     83.594    34.206
728.825     83.553    31.713
739.426     83.513    29.215
750.181     83.476    26.747
761.093     83.445    24.320
772.163     83.420    21.873
783.394     83.391    19.466
794.789     83.376    17.028
806.349     83.364    14.681
818.078     83.352    12.179
829.977     83.337     9.949
842.050     83.335     7.447
854.298     83.324     5.407
866.724     83.396     2.978
879.330     83.422     0.332
892.120     83.443    -2.297
905.097     83.450    -4.898
918.262     83.464    -7.580
931.618     83.473   -10.201
945.169     83.479   -12.885
958.917     83.485   -15.532
972.864     83.479   -18.266
987.015     83.479   -20.961
1001.37     83.477   -23.730
1015.94     83.461   -26.594
1030.71     83.419   -29.407
1045.71     83.365   -32.073
1060.92     83.323   -34.597
1076.35     83.287   -37.230
1092.00     83.262   -39.604
1107.89     83.249   -42.146
1124.00     83.240   -44.602
1140.35     83.244   -47.334
1156.94     83.250   -49.819
1173.77     83.252   -52.673
1190.84     83.277   -55.432
1208.16     83.269   -58.543
1225.73     83.240   -61.529
1243.56     83.186   -64.524
1261.65     83.137   -67.353
1280.00     83.078   -70.180
1298.62     83.034   -72.987
1317.51     82.989   -75.766
1336.67     82.945   -78.636
1356.11     82.889   -81.378
1375.84     82.846   -84.179
1395.85     82.811   -86.780
1416.15     82.783   -89.698
1436.75     82.751   -92.405
1457.65     82.716   -95.324
1478.85     82.685   -97.914
1500.36     82.673  -100.806
1522.19     82.691  -103.281
1544.33     82.730  -106.387
1566.79     82.757  -109.282
1589.58     82.799  -112.473
1612.70     82.844  -115.600
1636.16     82.890  -119.034
1659.95     82.933  -122.403
1684.10     82.973  -125.973
1708.60     83.023  -129.542
1733.45     83.078  -133.249
1758.66     83.141  -137.219
1784.24     83.196  -141.372
1810.19     83.215  -145.910
1836.52     83.188  -150.323
1863.24     83.115  -154.931
1890.34     83.037  -158.956
1917.83     82.955  -163.354
1945.73     82.877  -167.189
1974.03     82.797  -171.578
2002.74     82.719  -175.321
2031.87     82.639  -179.611
2061.43     82.561   176.674
2091.41     82.487   172.609
2121.83     82.435   169.012
2152.69     82.405   165.072
2184.01     82.393   161.325
2215.77     82.390   157.343
2248.00     82.396   153.430
2280.70     82.413   149.458
2313.87     82.437   145.400
2347.53     82.474   141.503
2381.68     82.524   137.342
2416.32     82.602   133.556
2451.46     82.710   129.190
2487.12     82.843   125.241
2523.30     82.980   120.376
2560.00     83.129   116.230
2597.24     83.280   110.952
2635.01     83.447   106.532
2673.34     83.611   100.867
2712.23     83.766    95.795
2751.68     83.870    89.749
2791.70     83.949    84.458
2832.31     84.018    78.609
2873.50     84.091    73.149
2915.30     84.161    67.203
2957.70     84.227    61.152
3000.72     84.235    54.522
3044.37     84.104    47.627
3088.65     83.846    41.504
3133.58     83.548    35.751
3179.16     83.252    31.031
3225.40     82.947    26.052
3272.31     82.657    22.437
3319.91     82.401    18.307
3368.20     82.229    15.562
3417.19     82.077    11.297
3466.89     81.930     8.583
3517.32     81.766     4.617
3568.48     81.607     2.417
3620.39     81.522    -0.318
3673.05     81.586    -2.051
3726.47     81.731    -5.178
3780.67     81.896    -8.159
3835.67     82.058   -11.995
3891.46     82.212   -15.832
3948.06     82.342   -20.039
4005.49     82.450   -24.424
4063.75     82.556   -28.684
4122.86     82.662   -33.651
4182.82     82.748   -38.442
4243.66     82.735   -44.583
4305.39     82.574   -49.508
4368.01     82.335   -54.991
4431.55     82.099   -58.405
4496.01     81.872   -63.121
4561.40     81.697   -65.616
4627.75     81.562   -70.019
4695.06     81.432   -72.793
4763.35     81.299   -77.019
4832.64     81.184   -79.831
4902.93     81.093   -83.787
4974.24     81.014   -86.992
5046.60     80.937   -91.051
5120.00     80.845   -94.845
5194.47     80.726   -98.990
5270.03     80.587  -103.222
5346.68     80.431  -107.475
5424.45     80.182  -112.737
5503.35     79.722  -117.148
5583.40     79.095  -121.168
5664.61     78.484  -122.060
5747.01     78.037  -122.854
5830.60     77.926  -121.354
5915.41     77.986  -123.366
6001.45     78.061  -123.669
6088.74     78.194  -126.754
6177.30     78.375  -128.157
6267.15     78.562  -132.174
6358.31     78.702  -135.165
6450.80     78.773  -139.945
6544.62     78.820  -143.789
6639.82     78.799  -149.047
6736.40     78.667  -153.743
6834.38     78.453  -158.622
6933.79     78.165  -163.284
7034.64     77.777  -167.295
7136.96     77.324  -170.959
7240.77     76.915  -172.667
7346.09     76.632  -175.060
7452.94     76.456  -175.835
7561.35     76.375  -178.477
7671.33     76.464  -179.209
7782.91     76.619   175.919
7896.12     76.659   172.992
8010.97     76.560   166.595
8127.49     76.355   163.094
8245.71     75.987   157.156
8365.65     75.535   154.671
8487.33     75.105   151.067
8610.78     74.720   149.950
8736.03     74.463   148.442
8863.09     74.444   148.084
8992.01     74.624   146.471
9122.80     74.968   143.979
9255.50     75.432   139.977
9390.12     75.866   133.084
9526.70     76.122   125.321
9665.27     76.092   114.349
9805.86     75.645   104.576
9948.49     74.756    92.535
10093.2     73.373    84.877
10240.0     71.635    77.167
10388.9     69.905    77.153
10540.1     68.337    76.031
10693.4     67.244    80.703
10848.9     66.221    79.820
11006.7     64.732    84.860
11166.8     63.604    93.948
11329.2     63.722   107.913
11494.0     64.950   116.500
11661.2     66.794   119.357
11830.8     68.295   113.393
12002.9     68.866   105.058
12177.5     68.777    99.167
12354.6     68.620    95.817
12534.3     68.798    95.679
12716.6     69.356    92.296
12901.6     70.058    89.418
13089.2     70.684    79.966
13279.6     70.937    72.558
13472.8     70.576    59.068
13668.8     69.544    54.311
13867.6     68.302    49.003
14069.3     67.840    55.458
14273.9     68.274    53.994
14481.5     69.100    53.893
14692.2     69.720    44.199
14905.9     69.831    36.989
15122.7     69.332    26.969
15342.7     68.658    23.822
15565.8     68.392    20.537
15792.2     68.306    16.561
16021.9     67.857    12.865
16255.0     67.524    12.486
16491.4     68.091    15.241
16731.3     69.039     9.413
16974.7     69.730     7.356
17221.6     70.780    -1.653
17472.1     72.114    -7.066
17726.2     72.760   -28.527
17984.0     72.470   -34.483
18245.6     72.285   -50.138
18511.0     73.291   -48.754
18780.2     74.585   -73.887
19053.4     75.102   -86.663
19330.5     74.876  -119.078
19611.7     74.228  -132.271
19897.0     73.551  -177.960
20186.4     73.670   176.927
20480.0     73.789   171.772
20777.9     73.908   166.574
21080.1     74.027   161.334
21386.7     74.145   156.049
21697.8     74.264   150.720
22013.4     74.382   145.346
