Freq[Hz]     dBSPL  Phase[Deg]
5.00000     -5.700  -129.799
5.07273     -5.012  -117.899
5.14651     -4.322  -105.845
5.22137     -3.632   -93.634
5.29732     -2.941   -81.263
5.37437     -2.248   -68.730
5.45254     -1.555   -56.032
5.53185     -0.861   -43.165
5.61231     -0.166   -30.127
5.69394      0.529   -16.916
5.77676      1.225    -3.527
5.86079      1.921    10.041
5.94604      2.618    23.792
6.03252      3.316    37.728
6.12027      4.014    51.854
6.20929      4.712    66.172
6.29961      5.411    80.685
6.39124      6.109    95.397
6.48420      6.808   110.310
6.57851      7.508   125.428
6.67420      8.207   140.755
6.77128      8.907   156.294
6.86977      9.607   172.047
6.96969     10.307  -171.980
7.07107     11.006  -155.786
7.17392     11.706  -139.365
7.27827     12.406  -122.716
7.38413     13.106  -105.833
7.49154     13.806   -88.713
7.60050     14.506   -71.354
7.71105     15.205   -53.749
7.82321     15.905   -35.897
7.93701     16.604   -17.793
8.05245     17.304     0.567
8.16958     18.003    19.188
8.28841     18.702    38.072
8.40896     19.400    57.224
8.53128     20.099    76.649
8.65537     20.797    96.350
8.78126     21.495   116.332
8.90899     22.192   136.599
9.03857     22.889   157.156
9.17004     23.586   178.006
9.30342     24.283  -160.844
9.43874     24.979  -139.392
9.57603     25.675  -117.632
9.71532     26.370   -95.559
9.85663     27.065   -73.169
10.0000     27.760   -50.457
10.1455     28.238   154.237
10.2930     28.676   172.387
10.4427     29.116  -126.369
10.5946     29.624  -109.081
10.7487     30.196   -75.356
10.9051     30.848   -59.193
11.0637     31.546   -37.338
11.2246     32.284   -22.505
11.3879     33.050    -7.302
11.5535     33.841     6.336
11.7216     34.647    17.219
11.8921     35.459    29.780
12.0650     36.276    37.657
12.2405     37.089    49.294
12.4186     37.902    54.968
12.5992     38.706    65.829
12.7825     39.504    69.834
12.9684     40.293    80.056
13.1570     41.077    82.758
13.3484     41.849    92.149
13.5426     42.618    94.702
13.7395     43.368   102.361
13.9394     44.116   105.291
14.1421     44.855   111.514
14.3478     45.589   114.699
14.5565     46.314   119.720
14.7683     47.031   123.080
14.9831     47.740   127.101
15.2010     48.445   130.613
15.4221     49.145   133.795
15.6464     49.839   137.399
15.8740     50.526   139.834
16.1049     51.209   143.505
16.3392     51.889   145.307
16.5768     52.562   149.035
16.8179     53.234   150.288
17.0626     53.903   154.011
17.3107     54.565   154.741
17.5625     55.225   158.418
17.8180     55.885   159.036
18.0771     56.542   162.129
18.3401     57.197   162.918
18.6068     57.850   165.436
18.8775     58.502   166.366
19.1521     59.149   168.348
19.4306     59.797   169.414
19.7133     60.445   170.925
20.0000     61.094   172.054
20.2909     61.741   173.092
20.5860     62.390   174.299
20.8855     63.039   174.906
21.1893     63.687   176.124
21.4975     64.335   176.291
21.8102     64.982   177.517
22.1274     65.633   177.312
22.4492     66.284   178.493
22.7758     66.935   177.856
23.1071     67.586   178.925
23.4432     68.234   178.040
23.7841     68.883   178.709
24.1301     69.530   177.769
24.4811     70.174   177.920
24.8372     70.815   176.920
25.1984     71.452   176.552
25.5649     72.083   175.415
25.9368     72.701   174.523
26.3141     73.308   173.274
26.6968     73.904   171.860
27.0851     74.483   170.334
27.4791     75.041   168.418
27.8788     75.570   166.901
28.2843     76.074   164.647
28.6957     76.545   162.991
29.1131     76.991   160.283
29.5365     77.388   158.635
29.9661     77.763   155.967
30.4020     78.137   154.547
30.8442     78.476   151.938
31.2929     78.815   150.581
31.7480     79.139   147.981
32.2098     79.423   146.283
32.6783     79.715   143.876
33.1536     80.004   142.004
33.6359     80.258   139.708
34.1251     80.481   137.886
34.6215     80.696   135.952
35.1250     80.895   134.032
35.6359     81.061   132.201
36.1543     81.226   130.416
36.6802     81.397   128.998
37.2137     81.557   127.204
37.7550     81.712   126.058
38.3041     81.875   124.289
38.8613     82.033   123.126
39.4265     82.187   121.260
40.0000     82.344   120.492
40.5818     82.494   118.657
41.1721     82.641   117.843
41.7710     82.793   116.260
42.3785     82.939   115.406
42.9949     83.082   113.961
43.6203     83.231   113.013
44.2548     83.382   111.689
44.8985     83.532   110.658
45.5515     83.684   109.494
46.2141     83.838   108.419
46.8863     83.992   107.357
47.5683     84.146   106.177
48.2602     84.305   105.237
48.9621     84.468   103.995
49.6743     84.632   103.107
50.3968     84.802   101.700
51.1299     84.970   100.771
51.8736     85.124    99.183
52.6281     85.273    98.401
53.3936     85.434    96.894
54.1702     85.601    96.080
54.9581     85.770    94.549
55.7575     85.939    93.570
56.5685     86.109    92.051
57.3914     86.280    90.871
58.2261     86.446    89.326
59.0730     86.604    87.965
59.9323     86.753    86.439
60.8040     86.905    84.995
61.6884     87.058    83.501
62.5857     87.201    81.885
63.4960     87.338    80.385
64.4196     87.470    78.674
65.3566     87.599    77.226
66.3073     87.723    75.363
67.2717     87.837    73.892
68.2502     87.944    71.931
69.2429     88.042    70.500
70.2501     88.129    68.457
71.2719     88.210    67.015
72.3086     88.282    65.017
73.3603     88.346    63.515
74.4274     88.405    61.633
75.5099     88.458    60.109
76.6083     88.500    58.292
77.7226     88.518    56.675
78.8531     88.522    55.108
80.0000     88.552    53.794
81.1636     88.602    52.355
82.3442     88.644    50.767
83.5419     88.677    49.294
84.7570     88.700    47.705
85.9899     88.714    46.363
87.2406     88.725    44.842
88.5096     88.753    43.697
89.7970     88.792    42.071
91.1031     88.818    40.848
92.4282     88.837    39.203
93.7726     88.857    38.053
95.1366     88.878    36.459
96.5204     88.902    35.222
97.9243     88.920    33.599
99.3486     88.922    32.313
100.794     88.912    30.855
102.260     88.893    29.739
103.747     88.907    28.811
105.256     89.003    27.851
106.787     89.112    26.330
108.340     89.163    24.537
109.916     89.189    22.872
111.515     89.200    21.076
113.137     89.191    19.495
114.783     89.169    17.837
116.452     89.148    16.552
118.146     89.139    15.010
119.865     89.136    13.770
121.608     89.131    12.155
123.377     89.127    10.934
125.171     89.111     9.328
126.992     89.085     8.248
128.839     89.118     7.039
130.713     89.191     5.586
132.615     89.205     3.600
134.543     89.173     1.931
136.500     89.137     0.325
138.486     89.101    -1.162
140.500     89.061    -2.627
142.544     89.024    -3.974
144.617     89.012    -5.210
146.721     89.019    -6.703
148.855     89.000    -8.229
151.020     88.956    -9.753
153.217     88.939   -10.886
155.445     88.958   -12.425
157.706     88.959   -13.951
160.000     88.930   -15.699
162.327     88.901   -17.062
164.688     88.874   -18.731
167.084     88.840   -20.159
169.514     88.796   -21.719
171.980     88.762   -23.000
174.481     88.741   -24.410
177.019     88.734   -25.699
179.594     88.735   -27.165
182.206     88.734   -28.626
184.856     88.734   -30.078
187.545     88.759   -31.565
190.273     88.781   -33.200
193.041     88.787   -34.886
195.849     88.818   -36.419
198.697     88.873   -38.250
201.587     88.927   -40.247
204.520     88.942   -42.661
207.494     88.918   -44.855
210.512     88.878   -47.179
213.574     88.819   -49.236
216.681     88.752   -51.356
219.833     88.696   -53.238
223.030     88.629   -55.276
226.274     88.577   -56.997
229.565     88.548   -58.955
232.905     88.511   -60.866
236.292     88.479   -62.806
239.729     88.467   -64.724
243.216     88.471   -66.857
246.754     88.455   -69.168
250.343     88.423   -71.422
253.984     88.397   -73.784
257.678     88.348   -76.149
261.426     88.296   -78.411
265.229     88.275   -80.658
269.087     88.239   -83.211
273.001     88.187   -85.574
276.972     88.143   -88.034
281.000     88.115   -90.363
285.088     88.092   -93.010
289.234     88.059   -95.602
293.441     88.018   -98.329
297.709     87.979  -100.961
302.040     87.946  -103.718
306.433     87.921  -106.508
310.890     87.883  -109.485
315.412     87.835  -112.403
320.000     87.794  -115.336
324.655     87.759  -118.341
329.377     87.725  -121.396
334.168     87.692  -124.584
339.028     87.658  -127.771
343.959     87.629  -131.097
348.962     87.595  -134.493
354.038     87.555  -138.029
359.188     87.508  -141.572
364.412     87.442  -145.312
369.713     87.360  -148.815
375.090     87.292  -152.395
380.546     87.227  -155.932
386.081     87.160  -159.561
391.697     87.099  -163.140
397.394     87.044  -166.804
403.175     86.989  -170.471
409.039     86.931  -174.191
414.989     86.887  -177.879
421.025     86.841   178.370
427.149     86.798   174.599
433.362     86.757   170.785
439.665     86.711   167.002
446.060     86.674   163.232
452.548     86.649   159.508
459.131     86.626   155.705
465.809     86.613   151.953
472.584     86.610   148.126
479.458     86.602   144.279
486.432     86.606   140.502
493.507     86.623   136.621
500.686     86.643   132.683
507.968     86.647   128.352
515.357     86.568   124.289
522.853     86.508   120.639
530.458     86.460   117.054
538.174     86.430   113.639
546.002     86.416   110.260
553.943     86.414   106.923
562.001     86.423   103.688
570.175     86.442   100.493
578.469     86.490    97.435
586.883     86.577    94.244
595.419     86.693    90.884
604.080     86.810    87.085
612.866     86.872    82.926
621.780     86.818    78.911
630.824     86.782    75.644
640.000     86.754    72.155
649.309     86.729    69.076
658.753     86.705    65.906
668.335     86.694    63.043
678.056     86.689    59.979
687.919     86.683    57.150
697.925     86.695    54.270
708.077     86.704    51.424
718.376     86.698    48.625
728.825     86.710    45.936
739.426     86.724    43.260
750.181     86.742    40.624
761.093     86.767    38.039
772.163     86.796    35.419
783.394     86.821    32.864
794.789     86.860    30.248
806.349     86.900    27.757
818.078     86.939    25.065
829.977     86.975    22.696
842.050     87.022    19.986
854.298     87.058    17.809
866.724     87.179    15.153
879.330     87.252    12.323
892.120     87.319     9.408
905.097     87.363     6.507
918.262     87.398     3.472
931.618     87.417     0.587
945.169     87.427    -2.346
958.917     87.435    -5.188
972.864     87.428    -8.110
987.015     87.424   -10.965
1001.37     87.414   -13.873
1015.94     87.389   -16.874
1030.71     87.333   -19.784
1045.71     87.263   -22.563
1060.92     87.200   -25.137
1076.35     87.142   -27.860
1092.00     87.091   -30.237
1107.89     87.049   -32.842
1124.00     87.007   -35.253
1140.35     86.976   -38.022
1156.94     86.944   -40.428
1173.77     86.904   -43.279
1190.84     86.881   -45.916
1208.16     86.828   -48.956
1225.73     86.748   -51.824
1243.56     86.637   -54.711
1261.65     86.527   -57.375
1280.00     86.403   -60.028
1298.62     86.289   -62.627
1317.51     86.171   -65.167
1336.67     86.048   -67.781
1356.11     85.907   -70.206
1375.84     85.775   -72.681
1395.85     85.642   -74.859
1416.15     85.512   -77.354
1436.75     85.369   -79.501
1457.65     85.216   -81.823
1478.85     85.059   -83.579
1500.36     84.932   -85.417
1522.19     84.893   -86.577
1544.33     84.923   -88.662
1566.79     84.946   -90.700
1589.58     84.983   -93.230
1612.70     85.015   -95.768
1636.16     85.042   -98.737
1659.95     85.057  -101.697
1684.10     85.060  -104.953
1708.60     85.066  -108.285
1733.45     85.068  -111.870
1758.66     85.068  -115.899
1784.24     85.037  -120.379
1810.19     84.913  -125.540
1836.52     84.649  -130.643
1863.24     84.262  -135.688
1890.34     83.828  -139.823
1917.83     83.364  -144.130
1945.73     82.867  -147.739
1974.03     82.340  -151.724
2002.74     81.763  -154.976
2031.87     81.146  -158.584
2061.43     80.467  -161.651
2091.41     79.699  -165.123
2121.83     78.713  -168.076
2152.69     77.477  -169.874
2184.01     76.064  -169.050
2215.77     74.623  -165.069
2248.00     73.364  -156.942
2280.70     72.699  -144.961
2313.87     72.998  -131.835
2347.53     74.152  -121.167
2381.68     75.835  -115.448
2416.32     77.584  -114.204
2451.46     79.122  -117.517
2487.12     80.259  -121.848
2523.30     81.179  -127.545
2560.00     81.919  -132.461
2597.24     82.593  -138.835
2635.01     83.142  -144.396
2673.34     83.625  -151.557
2712.23     83.925  -158.057
2751.68     84.091  -164.992
2791.70     84.212  -170.489
2832.31     84.369  -176.451
2873.50     84.524   178.021
2915.30     84.682   171.972
2957.70     84.828   165.950
3000.72     84.953   159.550
3044.37     85.022   152.787
3088.65     85.019   146.241
3133.58     84.969   139.441
3179.16     84.887   133.375
3225.40     84.783   126.742
3272.31     84.661   121.366
3319.91     84.581   115.337
3368.20     84.602   110.660
3417.19     84.690   103.956
3466.89     84.780    98.418
3517.32     84.863    91.016
3568.48     84.941    84.798
3620.39     85.021    77.129
3673.05     85.110    70.304
3726.47     85.204    62.286
3780.67     85.299    54.685
3835.67     85.397    46.193
3891.46     85.481    37.585
3948.06     85.514    28.462
4005.49     85.490    19.193
4063.75     85.445    10.248
4122.86     85.400     0.763
4182.82     85.355    -8.169
4243.66     85.283   -18.257
4305.39     85.175   -27.165
4368.01     85.046   -37.372
4431.55     84.927   -45.796
4496.01     84.808   -56.164
4561.40     84.695   -64.366
4627.75     84.577   -74.626
4695.06     84.465   -82.868
4763.35     84.354   -92.637
4832.64     84.293  -100.642
4902.93     84.306  -110.001
4974.24     84.361  -118.696
5046.60     84.425  -128.544
5120.00     84.471  -138.222
5194.47     84.475  -148.347
5270.03     84.441  -158.460
5346.68     84.394  -168.196
5424.45     84.337  -178.475
5503.35     84.265   172.151
5583.40     84.188   161.769
5664.61     84.124   153.106
5747.01     84.113   142.982
5830.60     84.212   134.846
5915.41     84.359   123.456
6001.45     84.497   114.165
6088.74     84.617   101.735
6177.30     84.721    91.584
6267.15     84.811    78.929
6358.31     84.861    67.789
6450.80     84.853    54.800
6544.62     84.826    43.070
6639.82     84.765    30.018
6736.40     84.644    17.653
6834.38     84.480     4.989
6933.79     84.290    -7.484
7034.64     84.067   -19.453
7136.96     83.837   -31.581
7240.77     83.679   -42.123
7346.09     83.671   -54.060
7452.94     83.772   -64.981
7561.35     83.865   -79.028
7671.33     83.904   -90.909
7782.91     83.904  -106.220
7896.12     83.818  -118.376
8010.97     83.632  -133.860
8127.49     83.437  -145.292
8245.71     83.295  -159.495
8365.65     83.203  -170.809
8487.33     83.215   175.677
8610.78     83.356   163.550
8736.03     83.549   148.985
8863.09     83.746   134.671
8992.01     83.914   118.828
9122.80     84.007   102.463
9255.50     84.011    86.015
9390.12     83.962    68.677
9526.70     83.884    52.351
9665.27     83.765    33.930
9805.86     83.596    17.587
9948.49     83.368    -1.782
10093.2     83.077   -17.561
10240.0     82.775   -36.895
10388.9     82.625   -51.382
10540.1     82.520   -72.517
10693.4     82.210   -89.390
10848.9     81.755  -110.208
11006.7     81.241  -126.355
11166.8     80.719  -145.269
11329.2     80.220  -160.589
11494.0     79.778  -177.579
11661.2     79.449   167.958
11830.8     79.352   152.801
12002.9     79.556   137.438
12177.5     79.965   120.121
12354.6     80.309    99.160
12534.3     80.324    78.256
12716.6     79.992    55.438
12901.6     79.533    37.793
13089.2     79.245    17.831
13279.6     79.328     3.251
13472.8     79.715   -18.911
13668.8     80.220   -36.162
13867.6     80.651   -63.360
14069.3     80.928   -83.883
14273.9     80.982  -112.141
14481.5     80.958  -132.683
14692.2     81.102  -158.755
14905.9     81.440   179.168
15122.7     81.749   150.498
15342.7     81.726   124.009
15565.8     81.408    96.610
15792.2     81.272    73.351
16021.9     81.842    49.739
16255.0     82.778    19.432
16491.4     83.183   -12.953
16731.3     83.001   -49.096
16974.7     82.699   -78.216
17221.6     82.295  -114.304
17472.1     82.204  -139.124
17726.2     82.396  -179.778
17984.0     82.272   152.285
18245.6     81.684   106.087
18511.0     81.261    82.637
18780.2     81.301    35.828
19053.4     81.331     5.708
19330.5     81.074   -50.459
19611.7     80.579   -86.379
19897.0     80.019  -167.388
20186.4     80.044   160.431
20480.0     80.062   127.883
20777.9     80.072    94.934
21080.1     80.074    61.549
21386.7     80.072    27.700
21697.8     80.071    -6.625
22013.4     80.073   -41.421
