Freq[Hz]     dBSPL  Phase[Deg]
5.00000     -6.716  -132.459
5.07273     -6.026  -120.487
5.14651     -5.335  -108.365
5.22137     -4.642   -96.089
5.29732     -3.948   -83.657
5.37437     -3.253   -71.065
5.45254     -2.557   -58.311
5.53185     -1.860   -45.393
5.61231     -1.162   -32.306
5.69394     -0.463   -19.049
5.77676      0.236    -5.618
5.86079      0.936     7.989
5.94604      1.637    21.777
6.03252      2.339    35.747
6.12027      3.041    49.903
6.20929      3.743    64.249
6.29961      4.446    78.787
6.39124      5.149    93.522
6.48420      5.853   108.455
6.57851      6.556   123.591
6.67420      7.260   138.933
6.77128      7.964   154.484
6.86977      8.669   170.248
6.96969      9.373  -173.772
7.07107     10.077  -157.571
7.17392     10.782  -141.147
7.27827     11.486  -124.496
7.38413     12.190  -107.614
7.49154     12.894   -90.497
7.60050     13.598   -73.141
7.71105     14.302   -55.543
7.82321     15.006   -37.699
7.93701     15.710   -19.605
8.05245     16.413    -1.256
8.16958     17.116    17.350
8.28841     17.819    36.220
8.40896     18.522    55.355
8.53128     19.224    74.761
8.65537     19.926    94.443
8.78126     20.627   114.403
8.90899     21.329   134.647
9.03857     22.029   155.180
9.17004     22.730   176.005
9.30342     23.430  -162.873
9.43874     24.129  -141.449
9.57603     24.829  -119.719
9.71532     25.527   -97.678
9.85663     26.225   -75.320
10.0000     26.923   -52.642
10.1455     27.416   152.074
10.2930     27.856   170.196
10.4427     28.301  -128.590
10.5946     28.812  -111.338
10.7487     29.387   -77.655
10.9051     30.042   -61.538
11.0637     30.742   -39.732
11.2246     31.482   -24.951
11.3879     32.249    -9.801
11.5535     33.041     3.784
11.7216     33.848    14.613
11.8921     34.660    27.118
12.0650     35.477    34.941
12.2405     36.290    46.523
12.4186     37.103    52.143
12.5992     37.906    62.949
12.7825     38.705    66.900
12.9684     39.493    77.067
13.1570     40.277    79.714
13.3484     41.048    89.050
13.5426     41.817    91.548
13.7395     42.566    99.151
13.9394     43.314   102.026
14.1421     44.052   108.192
14.3478     44.786   111.321
14.5565     45.511   116.285
14.7683     46.228   119.587
14.9831     46.936   123.550
15.2010     47.641   127.004
15.4221     48.341   130.126
15.6464     49.034   133.670
15.8740     49.721   136.045
16.1049     50.403   139.654
16.3392     51.083   141.395
16.5768     51.756   145.059
16.8179     52.428   146.250
17.0626     53.097   149.908
17.3107     53.759   150.573
17.5625     54.418   154.185
17.8180     55.078   154.736
18.0771     55.735   157.761
18.3401     56.390   158.483
18.6068     57.044   160.931
18.8775     57.695   161.791
19.1521     58.342   163.703
19.4306     58.990   164.697
19.7133     59.638   166.135
20.0000     60.287   167.191
20.2909     60.934   168.155
20.5860     61.583   169.287
20.8855     62.232   169.817
21.1893     62.881   170.957
21.4975     63.528   171.046
21.8102     64.175   172.193
22.1274     64.827   171.908
22.4492     65.478   173.007
22.7758     66.129   172.289
23.1071     66.781   173.274
23.4432     67.429   172.305
23.7841     68.077   172.888
24.1301     68.725   171.861
24.4811     69.369   171.925
24.8372     70.010   170.836
25.1984     70.647   170.377
25.5649     71.279   169.149
25.9368     71.897   168.165
26.3141     72.504   166.821
26.6968     73.100   165.312
27.0851     73.680   163.690
27.4791     74.238   161.677
27.8788     74.768   160.061
28.2843     75.271   157.706
28.6957     75.743   155.949
29.1131     76.189   153.139
29.5365     76.587   151.386
29.9661     76.961   148.613
30.4020     77.336   147.085
30.8442     77.675   144.368
31.2929     78.014   142.901
31.7480     78.338   140.189
32.2098     78.622   138.378
32.6783     78.914   135.856
33.1536     79.203   133.868
33.6359     79.458   131.454
34.1251     79.681   129.513
34.6215     79.896   127.458
35.1250     80.095   125.415
35.6359     80.261   123.459
36.1543     80.426   121.548
36.6802     80.598   120.002
37.2137     80.758   118.078
37.7550     80.913   116.800
38.3041     81.075   114.897
38.8613     81.233   113.599
39.4265     81.387   111.595
40.0000     81.544   110.688
40.5818     81.694   108.712
41.1721     81.842   107.754
41.7710     81.994   106.025
42.3785     82.139   105.024
42.9949     82.282   103.430
43.6203     82.431   102.330
44.2548     82.582   100.851
44.8985     82.732    99.664
45.5515     82.884    98.342
46.2141     83.037    97.106
46.8863     83.192    95.881
47.5683     83.346    94.536
48.2602     83.504    93.428
48.9621     83.667    92.015
49.6743     83.832    90.954
50.3968     84.000    89.372
51.1299     84.169    88.267
51.8736     84.322    86.497
52.6281     84.472    85.530
53.3936     84.632    83.836
54.1702     84.799    82.832
54.9581     84.968    81.107
55.7575     85.137    79.932
56.5685     85.307    78.214
57.3914     85.478    76.833
58.2261     85.644    75.083
59.0730     85.801    73.514
59.9323     85.950    71.777
60.8040     86.102    70.119
61.6884     86.255    68.408
62.5857     86.398    66.572
63.4960     86.535    64.848
64.4196     86.666    62.910
65.3566     86.795    61.232
66.3073     86.920    59.135
67.2717     87.033    57.427
68.2502     87.140    55.226
69.2429     87.238    53.551
70.2501     87.325    51.259
71.2719     87.406    49.566
72.3086     87.478    47.313
73.3603     87.542    45.552
74.4274     87.600    43.408
75.5099     87.653    41.618
76.6083     87.695    39.531
77.7226     87.714    37.640
78.8531     87.717    35.794
80.0000     87.747    34.199
81.1636     87.797    32.473
82.3442     87.839    30.594
83.5419     87.872    28.827
84.7570     87.895    26.939
85.9899     87.909    25.293
87.2406     87.920    23.465
88.5096     87.948    22.007
89.7970     87.987    20.065
91.1031     88.013    18.521
92.4282     88.033    16.550
93.7726     88.052    15.069
95.1366     88.074    13.140
96.5204     88.098    11.563
97.9243     88.116     9.595
99.3486     88.118     7.960
100.794     88.109     6.147
102.260     88.090     4.672
103.747     88.104     3.379
105.256     88.200     2.049
106.787     88.309     0.154
108.340     88.362    -2.019
109.916     88.388    -4.070
111.515     88.399    -6.256
113.137     88.391    -8.233
114.783     88.370   -10.292
116.452     88.350   -11.984
118.146     88.342   -13.938
119.865     88.339   -15.595
121.608     88.335   -17.633
123.377     88.332   -19.281
125.171     88.317   -21.321
126.992     88.292   -22.840
128.839     88.327   -24.494
130.713     88.400   -26.397
132.615     88.416   -28.838
134.543     88.385   -30.967
136.500     88.351   -33.038
138.486     88.317   -34.996
140.500     88.279   -36.938
142.544     88.244   -38.766
144.617     88.235   -40.488
146.721     88.243   -42.474
148.855     88.226   -44.495
151.020     88.185   -46.519
153.217     88.171   -48.158
155.445     88.193   -50.210
157.706     88.196   -52.249
160.000     88.170   -54.515
162.327     88.145   -56.398
164.688     88.122   -58.594
167.084     88.091   -60.551
169.514     88.051   -62.641
171.980     88.021   -64.453
174.481     88.004   -66.392
177.019     88.003   -68.212
179.594     88.011   -70.217
182.206     88.016   -72.218
184.856     88.024   -74.210
187.545     88.056   -76.246
190.273     88.086   -78.428
193.041     88.101   -80.661
195.849     88.142   -82.758
198.697     88.204   -85.168
201.587     88.262   -87.717
204.520     88.283   -90.675
207.494     88.262   -93.400
210.512     88.229   -96.240
213.574     88.176   -98.799
216.681     88.117  -101.407
219.833     88.070  -103.767
223.030     88.014  -106.266
226.274     87.976  -108.436
229.565     87.962  -110.847
232.905     87.941  -113.197
236.292     87.926  -115.574
239.729     87.930  -117.919
243.216     87.948  -120.446
246.754     87.949  -123.105
250.343     87.941  -125.689
253.984     87.942  -128.390
257.678     87.919  -131.089
261.426     87.894  -133.695
265.229     87.891  -136.249
269.087     87.875  -139.020
273.001     87.851  -141.538
276.972     87.845  -144.166
281.000     87.851  -146.669
285.088     87.865  -149.445
289.234     87.870  -152.147
293.441     87.870  -154.974
297.709     87.867  -157.699
302.040     87.866  -160.479
306.433     87.877  -163.222
310.890     87.879  -166.139
315.412     87.869  -168.960
320.000     87.863  -171.756
324.655     87.860  -174.552
329.377     87.859  -177.315
334.168     87.865   179.860
339.028     87.869   177.095
343.959     87.885   174.280
348.962     87.906   171.431
354.038     87.924   168.479
359.188     87.942   165.559
364.412     87.956   162.420
369.713     87.939   159.423
375.090     87.928   156.437
380.546     87.918   153.531
386.081     87.905   150.548
391.697     87.891   147.644
397.394     87.874   144.706
403.175     87.855   141.821
409.039     87.831   138.917
414.989     87.812   136.130
421.025     87.792   133.305
427.149     87.773   130.517
433.362     87.759   127.735
439.665     87.740   124.952
446.060     87.726   122.203
452.548     87.715   119.511
459.131     87.706   116.737
465.809     87.695   114.051
472.584     87.698   111.317
479.458     87.689   108.549
486.432     87.689   105.878
493.507     87.701   103.090
500.686     87.712   100.240
507.968     87.724    97.020
515.357     87.646    93.828
522.853     87.557    91.053
530.458     87.478    88.343
538.174     87.400    85.783
546.002     87.328    83.300
553.943     87.263    80.877
562.001     87.201    78.545
570.175     87.142    76.246
578.469     87.095    74.126
586.883     87.084    71.986
595.419     87.103    69.752
604.080     87.133    67.182
612.866     87.134    64.278
621.780     87.033    61.332
630.824     86.930    59.084
640.000     86.844    56.657
649.309     86.759    54.599
658.753     86.678    52.442
668.335     86.608    50.570
678.056     86.549    48.508
687.919     86.491    46.651
697.925     86.443    44.749
708.077     86.404    43.008
718.376     86.376    41.225
728.825     86.365    39.442
739.426     86.352    37.645
750.181     86.344    35.882
761.093     86.345    34.164
772.163     86.356    32.410
783.394     86.367    30.690
794.789     86.396    28.922
806.349     86.432    27.247
818.078     86.474    25.370
829.977     86.516    23.768
842.050     86.578    21.834
854.298     86.632    20.371
866.724     86.777    18.463
879.330     86.883    16.319
892.120     86.990    14.080
905.097     87.081    11.782
918.262     87.167     9.307
931.618     87.238     6.928
945.169     87.303     4.482
958.917     87.368     2.090
972.864     87.423    -0.409
987.015     87.484    -2.875
1001.37     87.543    -5.429
1015.94     87.590    -8.106
1030.71     87.610   -10.741
1045.71     87.618   -13.279
1060.92     87.635   -15.666
1076.35     87.658   -18.225
1092.00     87.689   -20.501
1107.89     87.729   -23.022
1124.00     87.769   -25.410
1140.35     87.820   -28.163
1156.94     87.869   -30.626
1173.77     87.910   -33.543
1190.84     87.968   -36.359
1208.16     87.978   -39.628
1225.73     87.944   -42.686
1243.56     87.877   -45.691
1261.65     87.812   -48.432
1280.00     87.734   -51.134
1298.62     87.669   -53.769
1317.51     87.601   -56.334
1336.67     87.530   -58.964
1356.11     87.444   -61.406
1375.84     87.370   -63.903
1395.85     87.298   -66.119
1416.15     87.231   -68.661
1436.75     87.152   -70.884
1457.65     87.071   -73.329
1478.85     86.986   -75.299
1500.36     86.928   -77.566
1522.19     86.907   -79.312
1544.33     86.914   -81.820
1566.79     86.896   -84.075
1589.58     86.891   -86.694
1612.70     86.874   -89.212
1636.16     86.851   -92.064
1659.95     86.810   -94.818
1684.10     86.756   -97.780
1708.60     86.698  -100.734
1733.45     86.630  -103.833
1758.66     86.552  -107.231
1784.24     86.438  -110.843
1810.19     86.257  -114.852
1836.52     85.985  -118.678
1863.24     85.637  -122.593
1890.34     85.246  -125.818
1917.83     84.832  -129.339
1945.73     84.368  -132.269
1974.03     83.881  -135.662
2002.74     83.321  -138.413
2031.87     82.725  -141.580
2061.43     82.039  -144.236
2091.41     81.288  -147.169
2121.83     80.387  -149.681
2152.69     79.346  -151.920
2184.01     78.132  -153.251
2215.77     76.757  -153.670
2248.00     75.164  -152.537
2280.70     73.333  -149.026
2313.87     71.317  -141.253
2347.53     69.450  -126.459
2381.68     68.962  -105.453
2416.32     70.046   -87.983
2451.46     71.552   -80.206
2487.12     72.486   -75.033
2523.30     73.296   -72.005
2560.00     73.875   -67.560
2597.24     74.532   -65.480
2635.01     75.011   -61.466
2673.34     75.557   -59.565
2712.23     76.035   -55.582
2751.68     76.669   -53.248
2791.70     77.354   -50.407
2832.31     78.026   -49.544
2873.50     78.641   -48.425
2915.30     79.193   -48.292
2957.70     79.686   -48.090
3000.72     80.110   -48.208
3044.37     80.459   -48.476
3088.65     80.756   -48.283
3133.58     81.015   -48.522
3179.16     81.252   -47.919
3225.40     81.452   -48.239
3272.31     81.635   -47.268
3319.91     81.767   -47.612
3368.20     81.878   -46.074
3417.19     81.954   -46.095
3466.89     82.050   -43.832
3517.32     82.126   -43.184
3568.48     82.232   -40.451
3620.39     82.396   -38.821
3673.05     82.664   -36.160
3726.47     82.936   -34.967
3780.67     83.189   -33.194
3835.67     83.408   -31.990
3891.46     83.632   -30.234
3948.06     83.891   -28.579
4005.49     84.184   -27.219
4063.75     84.483   -25.931
4122.86     84.762   -25.495
4182.82     85.008   -24.705
4243.66     85.154   -25.270
4305.39     85.170   -24.379
4368.01     85.117   -24.298
4431.55     85.066   -21.939
4496.01     85.017   -21.169
4561.40     85.013   -17.827
4627.75     85.047   -16.628
4695.06     85.091   -13.476
4763.35     85.133   -12.023
4832.64     85.187    -8.935
4902.93     85.255    -7.121
4974.24     85.332    -4.327
5046.60     85.407    -2.451
5120.00     85.456    -0.185
5194.47     85.459     1.833
5270.03     85.427     4.045
5346.68     85.385     6.729
5424.45     85.320     8.862
5503.35     85.198    12.054
5583.40     85.037    14.571
5664.61     84.887    19.236
5747.01     84.784    22.648
5830.60     84.777    28.477
5915.41     84.810    31.404
6001.45     84.849    37.060
6088.74     84.913    39.894
6177.30     84.997    45.301
6267.15     85.077    48.355
6358.31     85.143    53.361
6450.80     85.187    56.663
6544.62     85.229    61.540
6639.82     85.288    65.419
6736.40     85.371    70.025
6834.38     85.458    73.951
6933.79     85.500    77.663
7034.64     85.454    81.721
7136.96     85.343    85.623
7240.77     85.239    91.203
7346.09     85.189    95.643
7452.94     85.180   101.961
7561.35     85.183   105.916
7671.33     85.191   112.548
7782.91     85.185   115.831
7896.12     85.120   122.660
8010.97     84.986   126.112
8127.49     84.848   133.700
8245.71     84.738   138.468
8365.65     84.654   146.293
8487.33     84.599   151.934
8610.78     84.578   159.726
8736.03     84.596   166.066
8863.09     84.661   173.499
8992.01     84.745  -179.966
9122.80     84.814  -173.332
9255.50     84.873  -166.280
9390.12     84.976  -159.847
9526.70     85.141  -152.440
9665.27     85.301  -147.602
9805.86     85.369  -140.851
9948.49     85.324  -137.291
10093.2     85.120  -129.869
10240.0     84.826  -125.581
10388.9     84.631  -115.574
10540.1     84.475  -111.512
10693.4     84.162  -102.354
10848.9     83.752   -96.895
11006.7     83.345   -86.307
11166.8     82.999   -78.540
11329.2     82.742   -67.412
11494.0     82.518   -58.738
11661.2     82.286   -47.971
11830.8     82.076   -37.850
12002.9     81.960   -26.720
12177.5     81.982   -15.607
12354.6     82.025    -6.405
12534.3     81.913     4.157
12716.6     81.684    13.127
12901.6     81.518    26.600
13089.2     81.475    36.087
13279.6     81.529    50.660
13472.8     81.580    58.580
13668.8     81.630    74.164
13867.6     81.740    81.731
14069.3     81.950    97.167
14273.9     82.102   104.191
14481.5     82.181   118.561
14692.2     82.312   127.083
14905.9     82.520   140.723
15122.7     82.712   149.069
15342.7     82.737   160.727
15565.8     82.648   171.205
15792.2     82.774  -175.315
16021.9     83.328  -162.965
16255.0     83.884  -155.504
16491.4     83.922  -146.422
16731.3     83.743  -139.449
16974.7     83.769  -125.435
17221.6     83.811  -120.450
17472.1     83.909  -104.577
17726.2     84.107  -103.368
17984.0     84.246   -87.117
18245.6     84.071   -92.067
18511.0     83.717   -73.690
18780.2     83.575   -78.225
19053.4     83.449   -62.016
19330.5     83.313   -72.320
19611.7     83.201   -61.208
19897.0     82.968  -101.964
20186.4     82.970   -86.053
20480.0     82.973   -69.841
20777.9     82.977   -53.327
21080.1     82.982   -36.508
21386.7     82.987   -19.383
21697.8     82.993    -1.948
22013.4     82.999    15.802
