Freq[Hz]     dBSPL  Phase[Deg]
5.00000     -5.840    32.096
5.07273     -5.139    38.229
5.14651     -4.440    44.437
5.22137     -3.745    50.722
5.29732     -3.052    57.085
5.37437     -2.362    63.526
5.45254     -1.674    70.047
5.53185     -0.989    76.649
5.61231     -0.307    83.332
5.69394      0.373    90.098
5.77676      1.051    96.947
5.86079      1.726   103.882
5.94604      2.399   110.902
6.03252      3.069   118.010
6.12027      3.738   125.205
6.20929      4.404   132.489
6.29961      5.068   139.864
6.39124      5.730   147.329
6.48420      6.390   154.887
6.57851      7.049   162.538
6.67420      7.705   170.283
6.77128      8.360   178.124
6.86977      9.013  -173.939
6.96969      9.665  -165.903
7.07107     10.315  -157.769
7.17392     10.964  -149.534
7.27827     11.612  -141.198
7.38413     12.259  -132.759
7.49154     12.905  -124.216
7.60050     13.550  -115.567
7.71105     14.194  -106.811
7.82321     14.838   -97.945
7.93701     15.482   -88.970
8.05245     16.126   -79.882
8.16958     16.769   -70.680
8.28841     17.413   -61.362
8.40896     18.057   -51.926
8.53128     18.702   -42.369
8.65537     19.347   -32.690
8.78126     19.994   -22.886
8.90899     20.642   -12.953
9.03857     21.291    -2.891
9.17004     21.941     7.306
9.30342     22.593    17.639
9.43874     23.248    28.112
9.57603     23.904    38.729
9.71532     24.562    49.492
9.85663     25.223    60.406
10.0000     25.886    71.474
10.1455     26.452   -90.065
10.2930     26.794   -94.030
10.4427     27.242   -40.714
10.5946     27.744   -26.331
10.7487     28.322     2.840
10.9051     28.970    16.395
11.0637     29.672    35.121
11.2246     30.409    47.582
11.3879     31.177    60.434
11.5535     31.969    71.898
11.7216     32.775    80.918
11.8921     33.589    91.465
12.0650     34.405    97.811
12.2405     35.221   107.578
12.4186     36.032   111.958
12.5992     36.838   121.070
12.7825     37.634   123.963
12.9684     38.426   132.543
13.1570     39.207   134.274
13.3484     39.982   142.139
13.5426     40.748   143.755
13.7395     41.499   150.076
13.9394     42.246   152.070
14.1421     42.986   157.110
14.3478     43.718   159.361
14.5565     44.444   163.324
14.7683     45.161   165.760
14.9831     45.870   168.824
15.2010     46.574   171.428
15.4221     47.274   173.738
15.6464     47.967   176.449
15.8740     48.654   178.084
16.1049     49.336  -179.122
16.3392     50.015  -178.057
16.5768     50.689  -175.186
16.8179     51.360  -174.621
17.0626     52.029  -171.735
17.3107     52.690  -171.649
17.5625     53.349  -168.791
17.8180     54.007  -168.785
18.0771     54.665  -166.458
18.3401     55.319  -166.290
18.6068     55.972  -164.490
18.8775     56.622  -164.178
19.1521     57.269  -162.868
19.4306     57.916  -162.419
19.7133     58.564  -161.547
20.0000     59.212  -161.033
20.2909     59.858  -160.601
20.5860     60.506  -160.005
20.8855     61.154  -159.974
21.1893     61.801  -159.359
21.4975     62.447  -159.740
21.8102     63.094  -159.114
22.1274     63.744  -159.847
22.4492     64.394  -159.263
22.7758     65.043  -160.399
23.1071     65.694  -159.922
23.4432     66.341  -161.302
23.7841     66.988  -161.206
24.1301     67.633  -162.637
24.4811     68.276  -163.033
24.8372     68.916  -164.527
25.1984     69.551  -165.423
25.5649     70.182  -167.059
25.9368     70.798  -168.464
26.3141     71.403  -170.210
26.6968     71.997  -172.115
27.0851     72.575  -174.137
27.4791     73.131  -176.535
27.8788     73.659  -178.553
28.2843     74.160   178.725
28.6957     74.629   176.575
29.1131     75.073   173.413
29.5365     75.469   171.268
29.9661     75.841   168.153
30.4020     76.213   166.236
30.8442     76.549   163.193
31.2929     76.887   161.347
31.7480     77.209   158.303
32.2098     77.489   156.125
32.6783     77.778   153.274
33.1536     78.065   150.936
33.6359     78.317   148.194
34.1251     78.537   145.912
34.6215     78.749   143.528
35.1250     78.945   141.157
35.6359     79.107   138.872
36.1543     79.269   136.644
36.6802     79.437   134.773
37.2137     79.594   132.542
37.7550     79.745   130.938
38.3041     79.905   128.741
38.8613     80.059   127.112
39.4265     80.208   124.820
40.0000     80.362   123.593
40.5818     80.508   121.328
41.1721     80.651   120.057
41.7710     80.799   118.046
42.3785     80.940   116.734
42.9949     81.079   114.857
43.6203     81.222   113.458
44.2548     81.369   111.702
44.8985     81.514   110.222
45.5515     81.661   108.618
46.2141     81.810   107.098
46.8863     81.959   105.590
47.5683     82.107   103.969
48.2602     82.260   102.579
48.9621     82.417   100.901
49.6743     82.576    99.558
50.3968     82.738    97.716
51.1299     82.901    96.330
51.8736     83.048    94.302
52.6281     83.190    93.060
53.3936     83.345    91.120
54.1702     83.505    89.839
54.9581     83.667    87.869
55.7575     83.829    86.425
56.5685     83.991    84.459
57.3914     84.155    82.814
58.2261     84.313    80.818
59.0730     84.462    78.994
59.9323     84.603    77.010
60.8040     84.747    75.104
61.6884     84.891    73.146
62.5857     85.025    71.066
63.4960     85.153    69.096
64.4196     85.275    66.924
65.3566     85.394    65.000
66.3073     85.509    62.675
67.2717     85.612    60.724
68.2502     85.709    58.299
69.2429     85.796    56.380
70.2501     85.873    53.873
71.2719     85.943    51.930
72.3086     86.003    49.462
73.3603     86.055    47.470
74.4274     86.102    45.107
75.5099     86.142    43.089
76.6083     86.171    40.787
77.7226     86.177    38.673
78.8531     86.167    36.612
80.0000     86.183    34.801
81.1636     86.220    32.863
82.3442     86.247    30.776
83.5419     86.265    28.794
84.7570     86.273    26.704
85.9899     86.272    24.849
87.2406     86.267    22.820
88.5096     86.279    21.154
89.7970     86.302    19.024
91.1031     86.311    17.270
92.4282     86.313    15.117
93.7726     86.315    13.437
95.1366     86.319    11.323
96.5204     86.324     9.552
97.9243     86.323     7.405
99.3486     86.306     5.579
100.794     86.276     3.592
102.260     86.237     1.935
103.747     86.231     0.470
105.256     86.306    -1.034
106.787     86.393    -3.102
108.340     86.423    -5.441
109.916     86.427    -7.657
111.515     86.415   -10.002
113.137     86.382   -12.141
114.783     86.337   -14.347
116.452     86.293   -16.197
118.146     86.259   -18.291
119.865     86.231   -20.104
121.608     86.201   -22.275
123.377     86.171   -24.075
125.171     86.128   -26.243
126.992     86.076   -27.899
128.839     86.082   -29.676
130.713     86.126   -31.709
132.615     86.113   -34.264
134.543     86.052   -36.513
136.500     85.987   -38.697
138.486     85.921   -40.767
140.500     85.851   -42.813
142.544     85.784   -44.741
144.617     85.742   -46.562
146.721     85.717   -48.637
148.855     85.666   -50.751
151.020     85.590   -52.855
153.217     85.541   -54.581
155.445     85.527   -56.698
157.706     85.494   -58.814
160.000     85.432   -61.148
162.327     85.367   -63.099
164.688     85.307   -65.339
167.084     85.238   -67.360
169.514     85.159   -69.489
171.980     85.090   -71.353
174.481     85.032   -73.332
177.019     84.990   -75.192
179.594     84.956   -77.222
182.206     84.919   -79.252
184.856     84.885   -81.266
187.545     84.874   -83.315
190.273     84.861   -85.509
193.041     84.832   -87.746
195.849     84.829   -89.848
198.697     84.847   -92.241
201.587     84.862   -94.790
204.520     84.838   -97.731
207.494     84.774  -100.451
210.512     84.697  -103.265
213.574     84.600  -105.821
216.681     84.496  -108.405
219.833     84.403  -110.757
223.030     84.302  -113.225
226.274     84.218  -115.381
229.565     84.159  -117.758
232.905     84.092  -120.087
236.292     84.031  -122.432
239.729     83.990  -124.747
243.216     83.963  -127.242
246.754     83.921  -129.877
250.343     83.868  -132.444
253.984     83.823  -135.116
257.678     83.755  -137.792
261.426     83.686  -140.356
265.229     83.641  -142.886
269.087     83.585  -145.630
273.001     83.521  -148.161
276.972     83.472  -150.774
281.000     83.436  -153.285
285.088     83.410  -156.042
289.234     83.376  -158.760
293.441     83.336  -161.569
297.709     83.297  -164.299
302.040     83.261  -167.048
306.433     83.245  -169.793
310.890     83.223  -172.740
315.412     83.189  -175.622
320.000     83.161  -178.496
324.655     83.138   178.603
329.377     83.117   175.705
334.168     83.103   172.722
339.028     83.087   169.770
343.959     83.082   166.747
348.962     83.079   163.664
354.038     83.072   160.477
359.188     83.063   157.294
364.412     83.046   153.910
369.713     83.000   150.676
375.090     82.963   147.453
380.546     82.927   144.285
386.081     82.888   141.051
391.697     82.850   137.880
397.394     82.811   134.672
403.175     82.770   131.496
409.039     82.724   128.298
414.989     82.685   125.194
421.025     82.645   122.047
427.149     82.605   118.922
433.362     82.568   115.789
439.665     82.526   112.668
446.060     82.488   109.577
452.548     82.456   106.540
459.131     82.425   103.423
465.809     82.393   100.382
472.584     82.374    97.296
479.458     82.343    94.162
486.432     82.321    91.139
493.507     82.310    87.980
500.686     82.299    84.795
507.968     82.283    81.209
515.357     82.181    77.734
522.853     82.074    74.638
530.458     81.976    71.625
538.174     81.882    68.742
546.002     81.795    65.937
553.943     81.715    63.176
562.001     81.637    60.518
570.175     81.563    57.901
578.469     81.504    55.451
586.883     81.478    52.976
595.419     81.480    50.399
604.080     81.492    47.539
612.866     81.478    44.333
621.780     81.368    41.164
630.824     81.264    38.591
640.000     81.174    35.881
649.309     81.085    33.453
658.753     81.001    31.009
668.335     80.930    28.757
678.056     80.869    26.375
687.919     80.809    24.135
697.925     80.764    21.877
708.077     80.719    19.676
718.376     80.679    17.538
728.825     80.663    15.395
739.426     80.648    13.240
750.181     80.641    11.094
761.093     80.644     8.966
772.163     80.657     6.812
783.394     80.671     4.639
794.789     80.705     2.441
806.349     80.746     0.243
818.078     80.793    -2.093
829.977     80.842    -4.285
842.050     80.911    -6.723
854.298     80.975    -8.875
866.724     81.129   -11.402
879.330     81.244   -14.369
892.120     81.360   -17.442
905.097     81.440   -20.872
918.262     81.475   -24.407
931.618     81.472   -27.815
945.169     81.456   -31.140
958.917     81.435   -34.414
972.864     81.398   -37.735
987.015     81.360   -41.009
1001.37     81.314   -44.355
1015.94     81.249   -47.768
1030.71     81.149   -51.155
1045.71     81.031   -54.338
1060.92     80.915   -57.426
1076.35     80.798   -60.526
1092.00     80.682   -63.433
1107.89     80.569   -66.363
1124.00     80.449   -69.280
1140.35     80.333   -72.277
1156.94     80.209   -75.061
1173.77     80.071   -78.002
1190.84     79.946   -80.701
1208.16     79.824   -83.431
1225.73     79.715   -86.162
1243.56     79.594   -88.934
1261.65     79.480   -91.655
1280.00     79.353   -94.368
1298.62     79.241   -97.088
1317.51     79.127   -99.786
1336.67     79.013  -102.548
1356.11     78.885  -105.219
1375.84     78.770  -107.872
1395.85     78.659  -110.394
1416.15     78.556  -113.103
1436.75     78.446  -115.702
1457.65     78.332  -118.322
1478.85     78.222  -120.730
1500.36     78.134  -123.142
1522.19     78.097  -125.267
1544.33     78.098  -127.912
1566.79     78.090  -130.567
1589.58     78.096  -133.423
1612.70     78.104  -136.348
1636.16     78.112  -139.498
1659.95     78.116  -142.657
1684.10     78.115  -145.970
1708.60     78.123  -149.301
1733.45     78.135  -152.762
1758.66     78.153  -156.449
1784.24     78.163  -160.344
1810.19     78.139  -164.519
1836.52     78.073  -168.658
1863.24     77.964  -172.878
1890.34     77.848  -176.674
1917.83     77.728   179.342
1945.73     77.610   175.722
1974.03     77.491   171.790
2002.74     77.369   168.288
2031.87     77.248   164.481
2061.43     77.126   161.098
2091.41     77.014   157.613
2121.83     76.940   154.510
2152.69     76.912   151.105
2184.01     76.908   147.663
2215.77     76.909   143.930
2248.00     76.911   140.148
2280.70     76.917   136.240
2313.87     76.921   132.199
2347.53     76.929   128.170
2381.68     76.933   123.809
2416.32     76.918   119.569
2451.46     76.874   115.012
2487.12     76.820   111.053
2523.30     76.782   106.651
2560.00     76.759   102.895
2597.24     76.757    98.354
2635.01     76.772    94.456
2673.34     76.798    89.540
2712.23     76.798    84.930
2751.68     76.720    79.571
2791.70     76.589    75.041
2832.31     76.449    70.313
2873.50     76.309    66.105
2915.30     76.166    61.734
2957.70     76.018    57.636
3000.72     75.866    53.622
3044.37     75.718    49.682
3088.65     75.579    46.024
3133.58     75.444    42.098
3179.16     75.311    38.664
3225.40     75.175    34.735
3272.31     75.049    31.571
3319.91     74.916    27.542
3368.20     74.758    24.546
3417.19     74.576    20.673
3466.89     74.401    18.328
3517.32     74.231    15.038
3568.48     74.071    13.246
3620.39     73.987    11.019
3673.05     74.039     9.609
3726.47     74.171     6.946
3780.67     74.324     4.297
3835.67     74.482     0.764
3891.46     74.619    -3.043
3948.06     74.685    -7.364
4005.49     74.672   -11.749
4063.75     74.624   -15.772
4122.86     74.568   -20.199
4182.82     74.484   -24.362
4243.66     74.294   -29.556
4305.39     73.948   -33.440
4368.01     73.527   -37.403
4431.55     73.109   -39.130
4496.01     72.735   -41.280
4561.40     72.561   -40.947
4627.75     72.590   -42.772
4695.06     72.669   -43.995
4763.35     72.757   -47.179
4832.64     72.785   -49.893
4902.93     72.708   -53.589
4974.24     72.580   -56.146
5046.60     72.452   -58.887
5120.00     72.370   -60.906
5194.47     72.373   -63.139
5270.03     72.445   -65.876
5346.68     72.529   -69.216
5424.45     72.522   -73.903
5503.35     72.306   -78.243
5583.40     71.924   -82.540
5664.61     71.534   -84.641
5747.01     71.181   -87.353
5830.60     70.908   -88.041
5915.41     70.665   -90.718
6001.45     70.443   -91.012
6088.74     70.327   -93.160
6177.30     70.302   -93.721
6267.15     70.297   -96.574
6358.31     70.210   -98.516
6450.80     69.996  -101.483
6544.62     69.750  -102.371
6639.82     69.652  -103.098
6736.40     69.791  -103.500
6834.38     70.062  -105.611
6933.79     70.279  -109.171
7034.64     70.341  -113.276
7136.96     70.265  -117.993
7240.77     70.074  -121.966
7346.09     69.732  -126.751
7452.94     69.275  -129.170
7561.35     68.836  -132.129
7671.33     68.476  -132.515
7782.91     68.175  -134.862
7896.12     67.973  -134.241
8010.97     67.884  -136.574
8127.49     67.842  -136.734
8245.71     67.837  -139.545
8365.65     67.845  -140.878
8487.33     67.804  -144.441
8610.78     67.688  -146.634
8736.03     67.542  -149.745
8863.09     67.396  -151.918
8992.01     67.257  -154.537
9122.80     67.133  -157.012
9255.50     67.035  -159.402
9390.12     66.968  -162.670
9526.70     66.897  -165.725
9665.27     66.711  -170.955
9805.86     66.298  -174.392
9948.49     65.765  -178.836
10093.2     65.265  -179.761
10240.0     64.819   176.482
10388.9     64.385   176.253
10540.1     63.903   171.781
10693.4     63.173   171.445
10848.9     62.350   170.110
11006.7     61.682   173.909
11166.8     61.377   176.783
11329.2     61.568  -178.720
11494.0     62.005  -178.362
11661.2     62.419  -178.793
11830.8     62.693   178.765
12002.9     62.839   176.508
12177.5     62.960   174.516
12354.6     63.087   171.547
12534.3     63.170   169.588
12716.6     63.263   165.873
12901.6     63.421   163.975
13089.2     63.496   157.743
13279.6     63.334   154.840
13472.8     62.936   148.275
13668.8     62.439   148.855
13867.6     62.142   145.725
14069.3     62.267   148.119
14273.9     62.452   142.793
14481.5     62.490   141.794
14692.2     62.467   136.411
14905.9     62.441   135.099
15122.7     62.521   130.349
15342.7     62.678   126.190
15565.8     62.298   116.946
15792.2     60.724   113.438
16021.9     59.764   122.714
16255.0     61.285   130.342
16491.4     63.261   123.243
16731.3     63.185   108.305
16974.7     62.427   107.137
17221.6     62.716   104.409
17472.1     63.687   104.002
17726.2     64.472    90.184
17984.0     64.790    84.269
18245.6     64.430    66.678
18511.0     64.059    66.089
18780.2     64.096    51.347
19053.4     63.900    47.412
19330.5     63.650    31.874
19611.7     63.703    27.109
19897.0     63.617     0.780
20186.4     63.622    -2.639
20480.0     63.627    -6.077
20777.9     63.632    -9.534
21080.1     63.636   -13.011
21386.7     63.640   -16.507
21697.8     63.644   -20.024
22013.4     63.648   -23.561
